1619049237.3534055,0,-2,-1,2,-1,-1,-3,-1
1619049237.3569002,-1,1,-1,-1,-5,-2,1,3
1619049237.3608744,-2,-1,2,3,0,1,-2,-4
1619049237.3652678,0,-3,-1,2,0,-1,-1,-1
1619049237.3692353,0,2,-1,1,-5,-5,1,5
1619049237.3714578,-2,0,0,-1,-1,-1,-1,-4
1619049237.3755205,0,-1,0,-3,1,0,-1,-1
1619049237.3774316,0,0,-3,-2,-3,-3,-1,3
1619049237.381191,-1,0,-3,-1,0,0,-3,-3
1619049237.383249,0,-1,1,-1,0,1,2,0
1619049237.3865867,1,0,0,-1,-3,0,0,-2
1619049237.3883832,-1,-4,-1,-1,0,-1,0,-5
1619049237.3910246,-2,0,-3,-1,1,-1,0,-2
1619049237.3929698,-3,1,0,2,-1,0,-2,0
1619049237.4048955,-1,-1,-2,-3,-4,-1,0,-2
1619049237.4070847,-1,-2,-2,-2,0,0,-2,-3
1619049237.4099176,-2,-3,0,-2,-1,0,1,-3
1619049237.411757,-1,-1,0,1,-6,-4,-3,1
1619049237.4280398,-3,-1,0,3,0,-1,-2,0
1619049237.4302042,-1,-1,-2,1,-2,0,-2,1
1619049237.4362528,-2,-2,-2,-2,0,0,2,0
1619049237.4381025,0,-1,-2,-3,-2,-2,-1,-4
1619049237.443909,1,-2,0,1,1,-2,-1,-1
1619049237.4458647,2,-1,0,-1,-1,-1,0,0
1619049237.4485672,0,-1,-2,-4,0,1,0,1
1619049237.450366,-3,-2,0,-1,-1,-1,-2,-3
1619049237.4649086,-3,-1,-2,-3,-2,-2,0,1
1619049237.4666548,-2,-2,-2,-4,-3,-1,0,-1
1619049237.469012,0,-3,-1,-1,1,0,-2,-1
1619049237.4707212,-1,1,-1,0,-1,-1,-1,2
1619049237.495906,-1,-2,-2,-1,-2,-2,-3,-2
1619049237.4980319,-1,0,-2,-3,-1,0,-1,-1
1619049237.500806,-1,-1,0,2,-3,-2,0,-2
1619049237.5026212,0,-2,-2,-1,-1,-1,-1,-1
1619049237.5056942,0,0,0,-1,-1,-1,0,-1
1619049237.5074394,-1,0,0,1,0,-1,-1,-1
1619049237.509793,-2,-2,-1,0,-1,-1,-1,-2
1619049237.5116115,0,0,2,-1,0,-2,1,-1
1619049237.5421278,-1,-1,-1,-2,-1,-1,-1,1
1619049237.5440059,-1,0,0,-1,-1,0,0,0
1619049237.546678,1,0,-1,-1,-1,0,-1,-1
1619049237.5483592,0,-1,0,-1,2,-1,-1,1
1619049237.5514247,-1,0,-2,1,-1,2,-1,-2
1619049237.5531123,1,3,2,4,-3,-3,-1,0
1619049237.555442,-2,0,-1,0,-1,0,1,-2
1619049237.5571525,-1,0,-1,-2,1,3,1,-1
1619049237.5620246,1,-2,0,-2,-1,-2,-1,1
1619049237.5637238,-4,-3,-2,-1,-2,-2,-1,-2
1619049237.5660644,1,-2,-1,1,0,0,-1,-2
1619049237.5677922,0,0,-1,2,-1,0,-1,-2
1619049237.584795,-2,-2,0,-1,1,1,0,1
1619049237.5865276,-1,-1,-1,-1,0,0,-1,-3
1619049237.5888858,-2,1,-1,-2,-1,-3,-2,-1
1619049237.5906353,-2,-1,-4,-3,-3,0,1,1
1619049237.5990615,-4,-2,-3,-1,0,0,-1,-3
1619049237.600769,-1,0,0,-2,0,-1,-1,-1
1619049237.6067407,0,-2,0,-1,-1,-3,-2,-1
1619049237.6088305,-1,-2,-1,-1,1,-2,-1,-1
1619049237.622889,0,0,-2,1,-1,-3,-1,-1
1619049237.6246424,-2,-1,0,1,-2,1,1,0
1619049237.6296186,-2,-2,-2,-2,-3,0,1,-1
1619049237.6313584,-2,-1,-1,-1,-2,-1,-2,-2
1619049237.6448035,0,0,0,0,-2,-2,-2,0
1619049237.6466348,0,-1,-1,-1,-1,-2,0,-1
1619049237.6490533,-2,-1,-1,-1,0,-2,-1,-1
1619049237.6508281,0,0,-2,-1,-2,-2,-2,0
1619049237.659082,2,-1,3,2,-1,-2,0,0
1619049237.6608129,-3,-1,-3,-2,-1,-1,-1,0
1619049237.6837466,-1,1,-3,-3,0,1,0,1
1619049237.685568,-1,-2,0,-2,-1,-2,-2,-3
1619049237.6888652,-1,-2,-2,-2,-3,-1,-2,0
1619049237.6906314,1,-4,-3,-4,0,-3,-2,-2
1619049237.6929462,-1,-1,0,2,-2,-3,-2,0
1619049237.6946785,-2,-2,-1,-2,-2,-2,1,-1
1619049237.7042785,-3,-1,-1,0,-1,0,0,0
1619049237.7059822,0,0,-2,1,0,0,-1,0
1619049237.7083156,-1,0,-1,0,-3,-1,-2,-1
1619049237.7100122,0,-1,-1,1,0,0,-1,-1
1619049237.720817,0,-2,0,0,0,-1,-1,-2
1619049237.7225666,-3,0,-2,-3,-2,0,-2,0
1619049237.726101,0,-4,-4,-5,-2,-1,-2,0
1619049237.727806,0,0,-2,1,-2,-2,-2,-1
1619049237.7421527,0,1,0,1,0,0,0,-1
1619049237.7438817,-2,-1,2,1,1,-1,1,-2
1619049237.74639,1,-2,-2,-2,-1,-2,-3,-2
1619049237.7480867,-4,-2,-1,-1,1,1,-1,2
1619049237.7646668,-1,0,2,-1,-4,-5,-2,0
1619049237.7663977,0,-2,-2,-1,-1,0,0,0
1619049237.7687266,-1,-3,0,0,1,-1,0,-2
1619049237.770438,0,-1,3,4,0,-1,-2,0
1619049237.779716,0,-1,-3,-3,0,-1,-1,0
1619049237.781551,-1,-1,-2,0,-1,0,-2,-2
1619049237.7870162,0,1,1,1,-1,-2,-1,0
1619049237.7887292,1,0,-1,-2,-1,1,1,1
1619049237.810873,-1,0,-1,0,-1,-1,-1,-1
1619049237.8128843,2,1,0,-2,-2,-3,-1,0
1619049237.8155866,-4,0,1,-1,-1,-1,0,-3
1619049237.8173916,0,-2,-2,-1,0,-3,-1,-2
1619049237.8248234,0,-2,-2,-1,-1,0,1,-4
1619049237.8265455,-2,-1,-3,1,-1,-1,0,-1
1619049237.829062,-4,-1,0,0,0,0,-1,-3
1619049237.83096,2,1,-1,-2,-3,-1,-1,0
1619049237.8469553,-2,1,3,2,-3,0,-1,-1
1619049237.8488226,0,1,-2,-1,-1,1,-1,-1
1619049237.8645005,-1,0,-1,-1,-3,-1,-1,1
1619049237.8665257,-1,-3,0,-1,-1,-2,-2,-2
1619049237.8699214,-1,-3,-2,-1,-2,-2,-2,1
1619049237.8717144,-3,-3,-1,-3,0,6,-2,-1
1619049237.8744047,1,0,-2,-1,-1,-2,-1,-1
1619049237.8762417,0,0,1,0,-2,-1,-1,0
1619049237.884764,-1,-1,-4,-3,2,0,1,0
1619049237.886655,-1,-2,-3,-2,-2,-2,-2,0
1619049237.8892193,0,0,-3,-1,0,1,1,1
1619049237.8911128,-3,0,-2,-2,-2,1,-1,-1
1619049237.907513,-1,-2,0,0,-2,0,0,-1
1619049237.9093435,-2,0,-1,-1,0,-3,-2,-1
1619049237.9119043,1,-1,3,0,-2,-1,0,1
1619049237.9137335,0,0,-2,0,-1,-1,-1,-3
1619049237.9225426,-3,0,-2,-4,1,-3,-1,0
1619049237.9244032,0,-1,3,-2,-1,-2,0,0
1619049237.926957,0,-1,2,1,-1,-2,0,-1
1619049237.9289093,-4,-2,-4,-2,-3,0,2,1
1619049237.9530072,-1,-1,-4,0,-3,0,-1,0
1619049237.9550328,2,-1,1,-1,-2,0,-1,-1
1619049237.9575124,-1,-2,-3,-1,-1,0,0,-1
1619049237.9593759,-1,-2,1,-2,-1,-1,-1,1
1619049237.9997659,-2,-2,-3,-3,3,0,-1,-1
1619049238.001752,-1,-2,-1,-2,-2,-2,-1,-2
1619049238.004516,0,1,-2,0,-2,1,-2,-2
1619049238.0065072,-1,0,-4,-2,-3,-4,-2,0
1619049238.0098207,1,-2,-1,-4,-1,0,0,1
1619049238.0119636,-1,-2,-1,-3,-3,-1,-2,0
1619049238.0145934,-2,0,1,-1,1,0,0,-3
1619049238.016411,-1,-3,-5,-3,0,0,0,-1
1619049238.0196214,0,0,1,1,1,3,-1,0
1619049238.0214095,-2,-1,-1,0,-3,-3,-1,-1
1619049238.0239882,0,-1,-5,-5,-2,-1,0,1
1619049238.0257564,-1,-1,2,2,2,0,0,0
1619049238.0289955,0,1,3,1,1,-1,-2,-1
1619049238.0308697,0,0,-1,0,1,-1,0,-1
1619049238.0333786,0,-2,-2,-2,1,2,0,0
1619049238.035268,1,1,0,1,-1,-2,0,-2
1619049238.0507994,-2,-1,-2,0,-3,-2,0,-2
1619049238.052702,-3,-2,-3,-2,-4,-1,0,1
1619049238.0551999,-1,-2,0,-1,0,-2,0,-2
1619049238.057026,-1,-2,-1,-1,0,-1,-1,-1
1619049238.0654233,0,-2,-1,-3,-1,-2,0,-2
1619049238.067306,-1,-1,-5,-3,1,1,1,0
1619049238.069862,-1,-1,1,1,0,-4,-2,-1
1619049238.0717013,-3,-1,-1,-1,-1,-1,-1,-3
1619049238.088832,-2,-1,-2,-2,-2,-4,-2,-4
1619049238.090764,-2,-1,0,-1,0,-1,-1,-1
1619049238.09323,-2,-1,-1,-1,-2,0,0,0
1619049238.095001,1,-1,-1,-3,0,-1,-2,-1
1619049238.102643,-1,-1,-2,-3,-4,-3,-2,-2
1619049238.1045027,-1,-1,0,1,1,0,1,0
1619049238.1070354,-1,-3,-1,1,-3,-2,-2,1
1619049238.108886,-1,-1,2,1,-1,0,-2,-1
1619049238.1246846,-2,-3,-4,-3,-1,4,0,2
1619049238.1265962,-2,0,-3,-2,-1,0,-2,-1
1619049238.1320515,0,1,3,0,-1,-3,-1,-1
1619049238.133813,-5,-16,-33,-21,-7,-3,-1,-3
1619049238.1473322,4,16,50,32,4,-2,-1,0
1619049238.1491776,-1,-2,1,8,4,-1,0,-2
1619049238.151716,-1,0,-2,-1,0,1,0,-1
1619049238.153529,-1,1,-2,-3,-2,0,1,1
1619049238.1627102,-3,-11,-22,-15,-5,-2,-1,0
1619049238.1646414,-1,-1,-2,-2,-7,-4,-3,0
1619049238.1672323,-1,4,10,7,1,-2,0,-1
1619049238.1690757,-1,-2,-5,4,7,3,2,0
1619049238.193304,0,-2,-8,-19,-13,-9,-4,-1
1619049238.1954286,1,-2,1,-7,-7,-1,-1,-3
1619049238.1981525,1,-6,-11,-8,-22,-8,-2,-2
1619049238.200082,1,3,8,0,20,4,-2,-2
1619049238.2078483,1,2,-1,9,2,2,1,-3
1619049238.209724,-4,-7,-28,-18,5,-2,-2,0
1619049238.215243,1,2,20,15,3,1,-1,1
1619049238.2170966,-2,8,17,31,-10,-6,-2,0
1619049238.2231472,-1,-5,-20,-30,-14,-3,1,0
1619049238.2249966,0,-5,-15,-10,-13,-4,0,-2
1619049238.2275157,-2,-7,-12,-20,14,6,-1,-4
1619049238.229406,3,9,26,16,0,1,1,2
1619049238.245653,-3,-2,-8,10,6,3,-1,-2
1619049238.2475607,-3,-1,-2,-15,-24,-8,-3,-3
1619049238.2501333,-1,-3,-6,3,0,-6,-4,-2
1619049238.251974,-2,-8,-10,-24,-11,0,0,-1
1619049238.2677212,-1,0,-12,-4,25,6,0,1
1619049238.2695673,3,0,16,41,18,2,0,-1
1619049238.2722144,7,14,41,2,4,6,2,4
1619049238.274043,-2,-6,-9,8,-11,-14,-4,-3
1619049238.2840185,-5,-9,-17,-5,8,0,-2,-4
1619049238.2860467,-1,9,23,-9,-20,-6,-2,2
1619049238.288696,-2,4,-14,19,11,5,1,0
1619049238.290588,3,6,22,-17,-2,2,3,1
1619049238.313133,0,-5,-9,19,6,3,3,0
1619049238.3153114,-1,-8,-13,-19,-21,-3,-2,-3
1619049238.3289943,-1,-9,-20,5,-2,-4,0,-2
1619049238.3311248,2,17,28,18,15,4,-3,2
1619049238.335222,1,-4,-11,12,6,1,-1,1
1619049238.3372009,5,20,52,-12,18,1,1,4
1619049238.3399038,4,8,9,38,22,11,7,2
1619049238.3420494,-10,-14,-23,-43,-35,-14,-6,-4
1619049238.351966,-3,1,1,1,19,1,-1,1
1619049238.3536942,-6,-15,-40,-25,-7,3,-1,0
1619049238.3561664,3,11,29,-69,-32,1,0,1
1619049238.358024,1,0,7,93,39,6,1,-2
1619049238.3732183,-2,10,53,32,-19,-11,-6,0
1619049238.3752525,2,-9,-44,-41,-17,10,6,1
1619049238.377979,-10,-18,-41,-33,0,-17,-8,-5
1619049238.3800004,-3,-19,-56,-33,14,8,0,-3
1619049238.3877163,10,30,72,76,-5,-5,1,2
1619049238.3894675,0,3,17,-28,-3,0,1,-1
1619049238.3919933,-7,-7,-15,17,-27,-14,-4,-4
1619049238.394035,-2,3,26,14,-42,-6,-4,-3
1619049238.4112973,-10,-30,-68,-32,18,-1,-5,-5
1619049238.413421,2,15,22,11,22,7,1,3
1619049238.417254,2,0,12,56,8,3,0,1
1619049238.4191527,-2,-1,23,-22,12,-8,-8,-2
1619049238.432951,0,-11,-43,-40,-12,6,6,2
1619049238.4348989,-7,-14,-10,19,-8,-13,-10,-4
1619049238.4374118,9,8,-20,-77,-10,12,10,5
1619049238.4392567,-9,-21,-43,11,-3,-9,-7,-7
1619049238.4477715,13,29,69,-26,-23,-5,0,2
1619049238.4496405,2,-2,5,47,25,5,0,0
1619049238.4521337,-15,-31,-77,-73,-6,1,-1,-5
1619049238.4539602,10,32,56,56,12,-10,0,2
1619049238.4707544,6,18,53,-32,-1,9,4,4
1619049238.4726553,-2,-5,12,62,54,11,6,-3
1619049238.4751909,-12,-17,-22,-25,-19,-19,-15,-8
1619049238.477029,0,7,8,-13,14,10,5,3
1619049238.4951446,-8,-25,-56,-13,40,7,-1,-5
1619049238.49746,-7,-12,-18,15,37,-2,-9,-7
1619049238.5012372,1,-2,-32,-14,-18,1,3,2
1619049238.503816,18,33,86,85,97,38,16,6
1619049238.5085874,-13,-27,-77,-75,-51,-16,-6,-3
1619049238.511101,-9,-27,-82,-53,-48,-25,-14,-6
1619049238.5142412,7,44,87,98,30,1,-1,1
1619049238.5163002,-1,-26,-68,-18,-7,-6,1,-3
1619049238.5388484,7,-2,-47,-27,10,15,9,2
1619049238.5407224,7,-2,11,-31,1,5,0,0
1619049238.5434291,1,1,20,7,-10,-9,0,-1
1619049238.545422,-7,-19,-79,-62,-32,-13,-9,-1
1619049238.5524938,9,41,101,77,18,1,2,2
1619049238.5544786,-5,-12,-42,-80,-25,2,1,-2
1619049238.5597963,2,-3,2,63,43,7,2,2
1619049238.5616584,-9,-7,-50,-93,-25,-11,-7,-5
1619049238.5672207,0,3,19,26,19,-3,-5,-3
1619049238.5690966,17,59,127,91,20,29,18,11
1619049238.571668,-2,-4,-30,60,-30,-10,0,-1
1619049238.57342,-18,-25,-40,-68,10,-5,-13,-11
1619049238.5908303,5,26,68,43,-15,-11,-3,5
1619049238.5927117,-4,-5,-12,-6,-5,0,0,-2
1619049238.5952673,0,-7,-13,-18,-42,-14,0,3
1619049238.5971425,0,-4,13,9,18,16,5,-1
1619049238.613126,-13,-25,-41,-24,10,1,-5,-7
1619049238.6151543,1,0,10,19,23,-8,-3,-1
1619049238.617686,19,33,71,35,39,20,11,4
1619049238.6195402,-7,-35,-59,-65,-117,-45,-17,-8
1619049238.6277053,18,43,81,21,70,30,8,6
1619049238.6295867,-7,-10,-41,-14,-12,-5,-3,-6
1619049238.6321456,-2,5,47,50,20,-6,-7,3
1619049238.6338832,2,28,70,74,24,9,6,5
1619049238.6509793,-19,-43,-97,-21,-55,-25,-10,-10
1619049238.6528418,-13,-22,-53,-77,-73,-7,-2,-5
1619049238.6553826,15,51,108,68,43,7,-1,5
1619049238.6572485,3,3,-9,-53,-47,0,6,3
1619049238.6735244,-6,-13,-22,-2,-47,-29,-13,-6
1619049238.6755352,-4,-12,-37,15,0,-4,-5,-5
1619049238.6780891,-11,-33,-79,-104,-21,5,3,-3
1619049238.680013,1,-1,-4,6,55,23,6,-2
1619049238.6889105,-1,-19,-73,-79,-53,-22,-5,4
1619049238.6908362,-1,2,0,-7,-8,-6,-1,-2
1619049238.693329,-5,-6,-10,5,3,-5,-8,-5
1619049238.6952353,3,10,16,2,22,5,3,1
1619049238.710943,-10,-16,-8,5,28,27,4,-5
1619049238.7127254,16,40,93,72,1,-4,4,8
1619049238.7154045,-14,-25,-45,-23,21,-4,-13,-12
1619049238.7172482,0,9,19,36,28,11,4,2
1619049238.7341197,3,6,21,17,-19,1,3,1
1619049238.736104,5,13,46,53,16,9,6,6
1619049238.7387755,-5,-6,-9,1,15,2,-5,-6
1619049238.7405827,4,3,2,-3,-49,-21,-6,4
1619049238.7475612,-2,-5,-24,-4,9,9,3,-1
1619049238.7495239,-4,-5,-13,-31,-19,-5,-3,-2
1619049238.7520928,-3,-12,-25,-61,-15,-13,-2,-1
1619049238.7539463,9,21,38,26,18,5,2,5
1619049238.7716177,-1,1,1,-1,-5,6,4,-2
1619049238.7736042,-4,-6,-34,-30,-1,-9,-4,-4
1619049238.7762291,10,29,63,62,7,11,8,4
1619049238.778211,-5,-13,-34,-28,-22,-11,-6,-5
1619049238.7931736,1,1,-10,-13,-23,-6,2,3
1619049238.7951932,-1,-12,-32,22,86,23,2,4
1619049238.797778,-5,-19,-60,-82,-36,1,3,1
1619049238.7996418,0,4,22,35,27,1,-4,-1
1619049238.8080268,8,29,101,66,22,7,-2,-4
1619049238.8098955,3,6,15,5,-50,-15,-4,3
1619049238.8149629,-10,-29,-85,-46,4,1,-5,-2
1619049238.8168297,7,30,81,48,5,11,7,4
1619049238.8312423,-17,-29,-82,-75,8,-1,-6,-13
1619049238.8332603,8,13,54,103,57,29,15,12
1619049238.8358517,-2,-8,-38,-82,-63,-24,-10,-6
1619049238.8376215,-6,-16,-41,-8,-33,-8,-2,-2
1619049238.853198,1,-1,-2,-12,25,1,1,-2
1619049238.8552272,7,22,69,50,-2,-3,-2,1
1619049238.8579292,1,11,69,-9,-51,-17,-4,1
1619049238.859906,-3,-7,-3,13,16,6,0,-1
1619049238.8761342,2,2,-26,-10,-7,0,3,5
1619049238.8780813,-13,-22,-62,-86,-20,-17,-11,-14
1619049238.881461,-2,-11,-19,3,-2,11,4,7
1619049238.883292,-9,-24,-87,-73,-41,-8,-4,-8
1619049238.8905127,11,37,84,99,58,3,4,7
1619049238.8923922,-5,-11,-55,-40,-6,-7,-6,-6
1619049238.8956563,1,3,10,32,30,8,2,-4
1619049238.8975039,-3,-16,-46,-34,-2,4,3,1
1619049238.9130783,2,4,38,29,-19,-5,-2,2
1619049238.915123,-5,-7,-11,34,11,6,1,-5
1619049238.9276397,2,12,34,5,-26,-5,1,0
1619049238.9296792,3,1,6,-29,-19,-6,0,4
1619049238.9322567,-6,-15,-33,-48,-13,-5,-3,-2
1619049238.934134,2,-8,-31,4,-6,-11,0,3
1619049238.9373567,4,16,57,9,-17,4,4,2
1619049238.9392266,-6,-11,-42,-3,-19,-13,-7,-3
1619049238.9497952,-4,-10,-3,5,-33,-5,-3,-5
1619049238.951845,7,25,52,-29,-1,-3,2,1
1619049238.958336,-5,-13,-43,10,3,3,1,-6
1619049238.960154,4,8,9,24,23,7,5,7
1619049238.9730887,-5,-16,-47,-48,4,-11,-7,-4
1619049238.9751635,-6,-3,21,56,15,-2,-9,-11
1619049238.9786127,3,4,2,-18,23,3,3,11
1619049238.9805179,4,7,15,17,-10,-5,1,4
1619049238.98671,-3,-9,-18,4,-9,-1,4,0
1619049238.9885552,-7,-23,-70,-21,22,6,0,-3
1619049238.9956334,-6,-11,-23,-3,5,-7,-7,-9
1619049238.9975371,4,13,30,25,-5,1,2,4
1619049239.010917,-3,-8,-25,-8,8,-4,-1,1
1619049239.0129378,0,-3,7,-44,-50,-13,-4,0
1619049239.0164092,-6,-3,-6,-9,10,-3,-6,-5
1619049239.0184166,-3,-9,-15,32,24,4,0,-2
1619049239.0331538,0,9,31,43,-25,-8,-5,-6
1619049239.0352423,1,5,5,-40,-8,7,4,4
1619049239.0384452,-5,-19,-49,-21,12,0,-1,3
1619049239.0402331,2,11,39,-3,4,2,0,-2
1619049239.047193,-3,-6,-15,-20,-27,-16,-4,-1
1619049239.0491686,-8,-21,-46,-38,-8,0,-4,-6
1619049239.0554564,3,7,49,37,25,0,0,0
1619049239.057273,-4,-9,-32,-17,-22,-4,-2,-5
1619049239.07096,-2,-7,-7,26,58,18,2,-2
1619049239.07296,0,10,11,-10,-29,-17,-3,-3
1619049239.076179,-3,-7,-34,-31,-35,-6,-1,-4
1619049239.0780454,4,7,37,57,-35,-21,-1,9
1619049239.0930874,0,-10,-24,15,81,10,-3,-2
1619049239.0950067,1,6,-7,-25,-2,-2,2,1
1619049239.0983295,2,9,33,32,-4,3,1,-2
1619049239.1001081,-7,-3,13,37,46,-4,-5,-11
1619049239.1067991,2,4,-4,-28,-22,-4,0,0
1619049239.1086292,-1,-10,-19,22,21,5,1,4
1619049239.1154773,-6,-19,-77,28,6,7,0,-4
1619049239.117325,3,20,33,-1,17,14,3,-4
1619049239.1309297,-1,-3,-7,-58,-74,-17,-3,8
1619049239.1327913,-2,-3,-3,17,-9,-7,-7,-9
1619049239.1360147,1,-4,-19,31,48,18,8,1
1619049239.1378052,0,2,3,10,0,1,-5,0
1619049239.1539185,-5,-12,-40,-50,-8,4,0,-5
1619049239.1559634,5,11,8,-5,-35,-6,2,4
1619049239.1594353,0,-8,-12,28,13,-4,-7,-4
1619049239.1612928,-6,-18,-59,-18,7,6,3,-4
1619049239.166591,7,23,59,35,-7,-6,-2,-1
1619049239.1684394,-6,-11,-29,-33,0,4,6,1
1619049239.1762636,2,6,25,7,20,-3,-4,-1
1619049239.178086,-5,-25,-85,-72,-10,-12,-4,-3
1619049239.1907344,-1,0,-9,31,13,13,5,1
1619049239.1925738,-1,1,17,-8,1,-9,-6,-6
1619049239.1958113,-1,4,2,-12,35,6,2,2
1619049239.1977465,0,-11,-33,-75,-10,4,3,5
1619049239.2130127,4,13,46,53,-26,6,4,-2
1619049239.214974,1,0,18,47,37,3,-1,-2
1619049239.218212,-7,-5,-24,-55,-18,-5,-4,-5
1619049239.2200372,-5,-3,7,22,5,15,3,-3
1619049239.2268355,2,2,-2,-40,3,-14,-4,2
1619049239.2287319,7,18,73,90,30,5,3,2
1619049239.2358468,-1,-4,-19,-40,-35,-9,-5,-4
1619049239.237681,0,0,13,20,19,7,3,0
1619049239.2509196,-2,5,9,2,-10,-11,-4,-3
1619049239.2528543,-8,-12,-23,24,13,2,-3,-4
1619049239.256226,3,3,-2,-26,-40,-15,-4,2
1619049239.2581005,11,30,90,26,12,1,3,2
1619049239.2736425,-7,-26,-74,-29,22,2,-4,-4
1619049239.275542,8,28,90,66,39,12,8,5
1619049239.2790399,9,14,36,22,-65,-21,-4,2
1619049239.280984,-13,-17,-54,-39,-2,0,-6,-9
1619049239.296681,-5,-4,2,12,-2,18,5,-3
1619049239.2987375,9,20,32,19,-10,1,1,6
1619049239.3022552,-7,-10,-57,-57,6,-1,-3,-5
1619049239.3041074,-2,-2,-11,0,-8,-6,-2,-2
1619049239.310828,5,9,6,-28,-1,-12,-3,2
1619049239.312709,-9,-23,-43,-25,-21,-3,-4,-3
1619049239.316257,1,-2,4,-1,29,12,4,1
1619049239.3181338,-3,1,17,-14,-29,-3,-6,-5
1619049239.3408887,-4,-11,-35,-47,-9,-3,0,0
1619049239.3429506,-1,1,1,-9,-14,-14,-8,-5
1619049239.3465056,-1,-9,-26,-8,-16,-8,-4,4
1619049239.3485534,0,4,4,-17,-3,0,6,3
1619049239.3557851,-4,-2,-1,1,-21,-7,-4,-5
1619049239.357635,2,-2,-28,-20,-5,0,-1,1
1619049239.3609004,-5,2,11,5,2,5,2,-6
1619049239.3627772,-2,0,-9,-19,-21,-11,-6,1
1619049239.3715415,2,17,73,100,39,6,-3,-1
1619049239.3734193,-10,-25,-63,-66,-6,8,-2,-3
1619049239.3767169,0,1,18,65,52,7,3,2
1619049239.378539,-1,-2,-13,-36,-10,-8,-5,-2
1619049239.3930602,-5,-5,-17,-2,7,6,3,-1
1619049239.394911,0,-1,-17,-29,-23,-4,-3,-2
1619049239.3982728,4,10,41,39,-14,-1,0,0
1619049239.4001071,-3,-5,-6,16,4,1,-1,-2
1619049239.4162505,-2,-2,-17,-12,-27,1,-1,0
1619049239.4181046,-5,-13,-40,-51,-45,-8,-5,-2
1619049239.421312,1,10,41,-5,-33,-6,2,3
1619049239.423191,-3,-4,8,39,11,2,-2,-3
1619049239.430144,-5,-16,-42,-42,-44,-7,0,1
1619049239.4320993,-4,-17,-48,-29,20,-10,-6,-6
1619049239.43677,2,6,8,-4,18,8,4,4
1619049239.438679,6,14,69,62,8,-3,-4,-2
1619049239.4529915,-4,-14,-43,-47,-20,1,1,-2
1619049239.4549155,8,37,94,86,51,7,0,-1
1619049239.4581504,-4,-6,-19,-13,11,6,0,-6
1619049239.4600158,0,-6,-36,-101,-56,-15,-2,4
1619049239.4755454,0,0,11,57,75,10,0,-1
1619049239.4774091,3,5,33,14,-13,-2,2,4
1619049239.480716,-5,-9,-36,-18,-9,-6,-4,-5
1619049239.482547,8,16,52,57,33,15,11,10
1619049239.4897785,0,2,-2,-15,-18,-11,-8,-6
1619049239.4916208,-9,-15,-48,-53,-24,-2,-1,1
1619049239.5138552,13,17,61,50,29,7,5,12
1619049239.5156693,-6,-3,-8,2,-3,1,-3,-6
1619049239.5181973,5,5,10,23,3,-1,2,3
1619049239.5200458,-3,-21,-69,-25,-2,-5,-2,-3
1619049239.523292,-3,12,35,-1,-11,3,-5,-10
1619049239.5251114,2,-7,-22,-38,-4,2,2,5
1619049239.5356987,4,-1,-4,21,-18,-4,-1,0
1619049239.5376873,-7,-14,-34,-47,-20,-8,-4,-3
1619049239.5409029,-4,-5,-15,8,13,2,0,-3
1619049239.5427697,-1,-2,3,-6,-6,5,2,-5
1619049239.549941,8,25,57,30,-22,-15,-7,-2
1619049239.551795,0,-2,-27,6,1,4,1,3
1619049239.5564854,-1,-5,-37,-34,-34,-15,-2,3
1619049239.5582228,-4,-2,4,23,13,-3,-6,-10
1619049239.5728111,-6,-8,-14,-63,-29,-4,-2,-2
1619049239.5747094,8,17,59,37,18,6,4,6
1619049239.5805945,-3,-13,-37,-30,8,2,-3,-2
1619049239.5825396,-9,-17,-24,30,8,-4,-6,-8
1619049239.5968769,0,6,27,10,22,16,6,2
1619049239.599007,4,20,80,16,-56,-18,-6,-1
1619049239.6115823,-6,-8,-28,-89,-38,-1,-3,-3
1619049239.6135943,-11,-34,-108,-61,11,5,0,-6
1619049239.6164129,8,14,60,75,66,19,11,15
1619049239.6184826,2,17,41,28,6,-3,-1,0
1619049239.621688,-6,-7,-16,-10,4,1,-1,-2
1619049239.6235294,0,2,4,2,-17,-8,-9,-4
1619049239.6336725,-6,-9,-54,-44,-18,-13,-3,-2
1619049239.6355293,-3,-17,-32,5,10,4,-1,-2
1619049239.6387548,1,2,17,49,33,10,3,-1
1619049239.640586,6,15,19,6,18,3,-1,-4
1619049239.6561487,-5,-12,-37,-40,-38,-8,0,5
1619049239.6581347,-1,-1,10,-3,15,1,0,-2
1619049239.6613822,-3,-9,-38,13,18,5,0,-3
1619049239.6633,-1,8,19,3,1,3,0,-1
1619049239.6700957,-5,-7,-13,-50,-40,-9,-8,-6
1619049239.6719441,-1,-5,-13,-7,32,13,0,-3
1619049239.6762788,-2,-1,5,29,4,0,-2,-1
1619049239.6780767,-3,-6,-13,-12,-6,-9,0,0
1619049239.6935863,8,19,74,119,72,16,6,2
1619049239.6954818,-4,-10,-53,-42,-20,-9,-2,-3
1619049239.698788,-3,-5,-25,-21,-41,-22,-8,-5
1619049239.700645,-7,-19,-51,-9,-9,3,-1,0
1619049239.7157335,5,27,59,48,25,10,3,1
1619049239.7176785,-1,-3,-1,14,-16,3,2,0
1619049239.720895,-2,1,12,-5,-30,-14,-6,-3
1619049239.7228026,3,5,15,11,-10,-6,5,6
1619049239.7302208,-2,-11,-12,8,4,-6,-3,-2
1619049239.732092,0,2,2,3,-4,2,-1,-3
1619049239.7445667,0,1,6,-69,-32,-10,-5,-3
1619049239.7466385,0,2,3,-5,-4,-8,-5,-3
1619049239.7532222,-2,-11,-45,-58,-23,0,1,0
1619049239.7551153,-1,5,7,16,18,3,0,0
1619049239.758321,0,1,20,32,25,12,3,2
1619049239.7601395,2,8,33,-27,-24,-2,-3,-2
1619049239.775468,-4,-10,-32,-39,-28,-17,-8,-1
1619049239.7773309,0,-1,1,-1,30,16,4,4
1619049239.7806983,6,13,39,50,-12,-6,-2,0
1619049239.7826576,-2,-5,-9,22,30,10,2,3
1619049239.7895682,-2,5,20,-3,-6,-5,-4,-6
1619049239.7914426,-7,-17,-48,-66,-49,1,1,-6
1619049239.7979503,2,5,21,45,30,-12,-5,1
1619049239.799848,5,8,22,13,8,-4,0,1
1619049239.8130352,-3,-13,-36,1,11,6,2,-2
1619049239.8150032,0,-1,6,28,13,4,1,0
1619049239.8182375,4,13,30,8,2,10,5,2
1619049239.8200834,1,-2,-11,-25,12,-6,-3,1
1619049239.8362381,4,10,39,65,16,2,-1,-1
1619049239.8382337,-5,-4,-15,-22,-7,-9,-4,-6
1619049239.8417256,1,-3,-18,-35,27,10,7,9
1619049239.8437173,7,23,68,82,1,5,1,4
1619049239.8492446,-6,-17,-54,-43,-14,-1,4,-2
1619049239.8511682,4,8,20,25,51,6,5,3
1619049239.857935,6,24,72,92,18,-3,-1,-2
1619049239.8598142,-9,-16,-51,-30,-27,-6,-2,-3
1619049239.8806624,-5,-13,-33,-30,-28,-6,-8,-10
1619049239.8827674,10,18,54,55,24,3,7,20
1619049239.8862264,-9,-23,-64,-60,-35,-8,-4,-5
1619049239.888071,-2,-3,-9,-3,-10,4,1,0
1619049239.89544,-3,1,10,-13,-17,-11,-5,-5
1619049239.897357,-3,-16,-68,-41,-17,0,-3,-3
1619049239.9006238,3,8,19,5,26,12,4,2
1619049239.9025092,-4,-2,3,59,39,7,0,-2
1619049239.9090931,1,3,-1,-40,-34,-4,1,1
1619049239.9109602,-5,-11,-38,-34,-22,-10,-7,-6
1619049239.9180973,-8,-12,-30,-11,-1,1,-4,-6
1619049239.9199214,5,5,15,17,4,4,2,5
1619049239.9410696,-12,-32,-94,-67,-1,-8,-8,-4
1619049239.9431174,5,10,30,15,-7,-6,0,-2
1619049239.9467247,-2,-7,-17,7,-1,-3,-4,-4
1619049239.9485953,-2,-5,-11,-21,5,0,1,0
1619049239.9558244,-9,-14,-32,-12,13,3,-1,-10
1619049239.9577017,6,19,84,9,-42,-19,-1,9
1619049239.9609468,-2,-1,-19,-38,2,-1,1,-2
1619049239.9628236,-1,-9,-22,-10,23,6,1,-4
1619049239.969035,4,8,22,-20,-28,-13,-6,3
1619049239.9709392,-7,-12,-33,-11,5,2,-3,-1
1619049239.9778492,-6,-15,-40,-33,-35,-4,-1,-3
1619049239.9796796,-7,-12,-34,-83,-6,-8,-2,-2
1619049239.9930327,6,15,73,95,44,14,7,5
1619049239.9949064,-3,-3,-12,11,5,1,-3,-5
1619049239.9981678,1,9,27,43,8,9,0,-3
1619049239.9998949,-7,-15,-40,-17,16,10,1,1
1619049240.0158377,4,6,-17,-44,-10,1,2,6
1619049240.0178692,7,25,84,75,12,7,5,2
1619049240.0212572,-1,7,25,-38,0,2,-1,1
1619049240.0231662,-2,1,5,13,-3,-6,-7,-8
1619049240.0291367,2,-3,-6,36,24,5,5,7
1619049240.031058,1,2,-6,-55,-15,3,1,1
1619049240.038486,-5,-9,-29,23,1,-7,-3,-5
1619049240.0403273,4,8,30,2,-36,-6,0,3
1619049240.0520568,2,10,35,35,49,11,-2,-6
1619049240.0539238,-8,-25,-94,-32,-1,-7,-4,-1
1619049240.0610647,-7,-20,-50,-24,12,6,0,-2
1619049240.0630467,19,40,100,72,13,3,8,11
1619049240.075677,-8,-19,-52,-19,2,3,-3,-6
1619049240.0776682,2,-2,-1,8,-14,-10,-2,1
1619049240.0811732,1,-1,11,-16,3,-4,-1,-1
1619049240.0831792,-5,-18,-54,-8,-26,-4,-4,1
1619049240.0894356,-7,-4,-12,-2,2,2,-1,-6
1619049240.091313,1,6,21,10,3,1,0,2
1619049240.0991786,0,1,-5,1,-16,3,2,0
1619049240.1010315,-5,-9,-31,-55,-29,-15,-5,3
1619049240.1130505,4,14,43,47,-6,-5,0,0
1619049240.11511,-3,-7,-24,-26,-9,-1,2,0
1619049240.1184442,1,-2,4,7,-6,-1,0,-2
1619049240.1202939,-4,0,11,12,18,-1,-9,-12
1619049240.1357312,-2,-1,5,22,3,-7,-7,0
1619049240.1375923,1,-1,0,16,12,5,5,6
1619049240.1408458,0,-6,-22,-56,-30,-17,-4,0
1619049240.1426675,9,29,108,96,11,2,2,1
1619049240.1492698,-1,-2,-11,-5,7,1,2,3
1619049240.151187,-5,-4,-2,-18,-7,-6,-8,-11
1619049240.1655488,0,-2,0,38,15,2,-1,4
1619049240.1674452,-2,-3,-27,-39,-14,-2,-2,-1
1619049240.1731265,-3,-7,-9,-34,-12,2,1,-3
1619049240.175017,2,14,62,79,33,4,-3,-3
1619049240.1782901,0,2,7,1,1,-5,-2,3
1619049240.1801145,2,-1,-1,4,1,-2,-1,-1
1619049240.2034523,2,-1,-1,-13,-12,0,3,0
1619049240.2054358,-5,-9,-25,-11,1,-1,-2,-4
1619049240.2086658,-1,4,17,3,-2,-1,-3,1
1619049240.2105732,-3,-6,-14,-14,2,-4,-1,-2
1619049240.218121,3,1,2,-5,-6,-2,2,4
1619049240.2199895,-2,-5,-22,-38,-12,-1,-1,-5
1619049240.2232113,0,4,13,34,3,-4,-2,-2
1619049240.2250078,-1,-4,-19,-18,-7,-6,-1,2
1619049240.2330406,1,4,6,-1,-2,-3,-2,-1
1619049240.234914,1,-2,-9,-12,-9,-4,-2,0
1619049240.2382593,-3,-9,-11,-20,-3,3,1,0
1619049240.2402084,4,13,40,22,-5,7,3,1
1619049240.2549808,-2,-2,-1,10,6,-2,-1,1
1619049240.2568328,-3,-5,-10,-23,-1,-2,-3,-3
1619049240.2635949,0,-2,-9,4,8,0,-1,0
1619049240.265499,1,-3,-3,-1,1,-1,0,-2
1619049240.278289,-2,-4,5,12,4,6,0,-2
1619049240.2801871,1,10,28,4,-2,1,0,-1
1619049240.283572,-2,-2,-3,-7,-11,-6,-2,-2
1619049240.2854052,-6,-8,-26,-4,0,-4,-3,-2
1619049240.292831,-1,-5,-6,-30,-9,-3,-3,0
1619049240.2947893,-2,-6,-14,-3,-6,-6,-6,-2
1619049240.2981603,1,0,2,27,4,-3,-1,0
1619049240.3000178,-1,-1,-8,-13,6,1,0,1
1619049240.3148074,-3,-2,-8,-17,-8,-3,-4,-2
1619049240.3167026,-5,-6,-15,-11,-6,2,-2,0
1619049240.3233693,0,-1,-3,-14,-2,4,2,-1
1619049240.3252146,-1,-3,-4,22,4,-3,-1,-1
1619049240.3384583,3,8,14,17,6,-3,0,2
1619049240.3404472,0,-3,-6,0,2,-1,-2,-2
1619049240.3437178,-1,1,6,7,5,2,0,1
1619049240.3455453,-3,-5,-15,-18,-5,0,-1,-2
1619049240.3528738,1,0,-4,1,-5,-2,0,0
1619049240.3548212,1,6,9,3,0,2,0,-1
1619049240.358074,-2,6,8,15,11,8,2,-1
1619049240.3599172,-6,-8,-10,3,-2,-5,-5,-3
1619049240.3755853,-5,-8,-1,5,-3,-2,-3,-1
1619049240.3774242,-1,-8,-13,-6,-6,0,-1,-2
1619049240.3807323,0,-6,-7,2,2,1,-1,0
1619049240.3827007,0,-2,-1,-13,-1,0,0,0
1619049240.4049075,5,8,8,-8,-5,0,0,1
1619049240.406944,0,-9,-10,13,4,-1,0,-2
1619049240.415163,0,-1,-1,-14,-7,-1,1,-1
1619049240.4171581,1,-1,-2,-4,-3,-2,-1,-2
1619049240.4196482,-3,-1,-7,-2,-1,-1,0,-2
1619049240.4214692,-4,0,-1,-12,-5,1,0,-2
1619049240.4246671,-1,2,0,2,-2,-2,-4,-2
1619049240.4265335,0,1,-5,-11,-2,0,-2,0
1619049240.4369388,-1,0,-3,-5,-2,-1,0,1
1619049240.4389694,-2,2,5,13,-2,-8,-3,1
1619049240.4424613,0,0,8,10,7,3,-1,-1
1619049240.4451659,1,0,-7,-17,-5,0,-1,-3
1619049240.4589696,-3,-4,-2,-3,0,2,-1,-3
1619049240.4610379,-3,-1,-3,-5,0,-2,-1,-2
1619049240.4648693,1,0,-2,-6,-5,1,1,1
1619049240.4671822,-1,-1,-5,-7,-1,-2,1,0
1619049240.497699,0,1,8,26,10,-2,-3,-2
1619049240.4997118,-1,-3,-4,-14,-3,1,-1,1
1619049240.5034454,-1,-4,0,-28,-9,-5,-1,-1
1619049240.5053875,-2,-1,-4,-6,1,3,2,2
1619049240.5078757,-1,0,-5,-10,-4,1,-2,-1
1619049240.5096195,-1,-1,0,6,-3,1,0,-1
1619049240.5127964,-2,-2,-3,14,2,0,-1,-1
1619049240.51473,0,-2,-2,6,-3,0,-1,-3
1619049240.5193152,0,-2,-2,6,-2,-4,-1,-2
1619049240.5211093,-1,-2,-3,1,2,0,1,-2
1619049240.5242763,-2,-1,-4,-1,-2,1,1,-1
1619049240.5261033,0,-1,0,4,-2,-1,-1,0
1619049240.5483809,-1,-2,0,0,-1,-4,0,2
1619049240.550552,0,-1,-4,0,1,0,0,-2
1619049240.5542543,0,0,-1,-2,-2,0,-1,-2
1619049240.556254,-2,-1,-4,-2,-2,0,-1,0
1619049240.5587945,-2,-2,-1,0,-3,-4,-1,-1
1619049240.5607495,0,-1,0,-4,-1,1,1,-1
1619049240.5641663,0,-1,0,0,1,-4,-3,0
1619049240.5660903,-2,-2,-3,-1,-4,-3,-2,-1
1619049240.5787346,-2,-2,-3,-6,-4,0,-3,-1
1619049240.5805933,-1,-2,-1,1,-2,-2,-2,0
1619049240.5839078,1,-3,1,-1,-1,-2,-2,2
1619049240.5857327,-3,1,0,-1,2,0,-1,-1
1619049240.5922916,0,-2,-6,-11,1,5,3,-2
1619049240.5941677,-3,-1,0,2,-3,0,-1,0
1619049240.6068356,-1,-2,-2,-7,-3,2,0,0
1619049240.6086912,1,1,6,14,0,-5,-1,0
1619049240.6149113,-1,-1,-1,1,-1,-4,-1,0
1619049240.6167917,-1,-1,-4,-7,-1,2,0,-4
1619049240.6289937,-1,-4,-3,-2,-4,-3,-2,-3
1619049240.6309366,0,0,2,-4,-4,-5,-1,0
1619049240.6380494,0,3,4,4,4,3,0,1
1619049240.639924,0,1,0,-5,-2,-4,1,0
1619049240.6431215,-1,-2,-3,2,-5,-4,-1,-1
1619049240.6449723,0,0,2,0,-3,-3,1,0
1619049240.6521702,2,-1,2,6,-1,-4,-1,0
1619049240.6540453,-1,-1,0,2,4,0,-3,0
1619049240.658966,-3,2,-1,1,-1,-2,-1,-2
1619049240.6608207,-3,-3,-5,-8,-2,-1,-1,-1
1619049240.676186,-1,0,-2,-2,-1,0,1,-2
1619049240.6780643,1,1,2,2,-1,-4,2,0
1619049240.6814134,-1,1,3,-1,-4,-3,-1,-1
1619049240.6833782,-2,-3,-2,0,2,4,-1,-2
1619049240.6983562,-2,-3,0,-4,-4,-1,-2,1
1619049240.700363,-1,-2,-1,-2,-2,-3,-3,-3
1619049240.7036703,0,-1,0,-4,0,0,0,-1
1619049240.7054796,0,0,0,-3,3,0,1,-1
1619049240.7118502,-2,-2,-2,-5,-3,-2,-1,0
1619049240.7136667,-1,0,-2,-1,1,3,-1,-1
1619049240.7267492,1,0,-2,0,4,0,0,-2
1619049240.7286174,-1,-4,-2,-3,1,2,-2,-1
1619049240.7356973,-1,-3,0,-2,0,0,-1,-1
1619049240.7375076,-1,-5,-1,1,-2,-1,-2,1
1619049240.7407076,-1,-1,0,3,0,0,-1,1
1619049240.7425895,-2,-2,-3,-1,-5,-1,-1,-2
1619049240.7588308,1,-1,0,1,-2,-4,-1,-2
1619049240.7606947,-1,-2,-3,-4,-1,-2,1,-1
1619049240.7725978,0,0,-2,0,0,-1,-1,-1
1619049240.7744725,-2,-1,0,-1,-1,0,-1,0
1619049240.7769723,-1,-1,-3,-1,2,-1,-3,-3
1619049240.7788877,-2,0,0,-1,-1,0,0,0
1619049240.7821734,-2,-3,-1,-3,-2,1,2,0
1619049240.7840846,-2,0,0,1,-4,-3,-1,-1
1619049240.7957945,-2,-2,-1,-2,-3,0,-1,-1
1619049240.7981627,-1,-1,-2,0,-1,0,-1,0
1619049240.8014178,-1,-3,-1,-2,0,-1,-1,-1
1619049240.8032725,-1,0,1,-2,-1,-2,0,-1
1619049240.8186436,1,0,-1,-1,-1,0,0,2
1619049240.8206055,1,-1,0,0,0,-2,-3,-2
1619049240.8238444,-2,-2,-1,-1,0,-1,-2,-2
1619049240.8257148,1,-1,0,0,-2,-1,-1,2
1619049240.8325696,0,0,1,-1,-1,-2,-2,-1
1619049240.8344843,-2,-1,0,-1,0,0,-2,-1
1619049240.8404918,1,1,-1,0,-1,-3,0,1
1619049240.8425303,-2,-3,-2,1,-1,-2,0,-1
1619049240.8567922,-1,-1,-3,0,-4,0,1,-4
1619049240.858713,-2,0,-1,1,-2,-1,-2,-2
1619049240.8619668,-3,-1,-2,0,-1,-1,1,2
1619049240.8644965,-1,0,-1,1,2,0,1,-1
1619049240.8778968,-1,-1,0,-2,1,1,0,-1
1619049240.8796952,-1,1,-3,-3,-3,-2,-1,-1
1619049240.883057,-1,-1,-2,-5,1,6,-1,-2
1619049240.8849516,2,-2,-2,1,2,2,-1,-1
1619049240.8918042,1,-1,0,1,2,-1,0,1
1619049240.893689,-2,-2,-1,-2,-1,-2,-1,0
1619049240.9083614,1,-1,0,0,-1,-1,-1,-2
1619049240.9102483,1,0,-4,-4,-2,3,0,-1
1619049240.915322,-3,-2,-2,-3,-3,-3,0,-1
1619049240.9171574,-3,-3,0,-2,-2,2,0,-3
1619049240.9204378,-2,0,-3,1,0,-1,0,0
1619049240.9223678,0,0,0,-1,-3,-2,-1,-2
1619049240.9378994,0,1,-3,-2,-3,-2,0,0
1619049240.939769,-1,-2,-4,-1,-2,-4,-1,1
1619049240.9531422,-1,-3,-1,-1,-4,-1,-4,-3
1619049240.9551632,0,0,0,1,-2,-2,-3,-1
1619049240.9576852,0,-2,0,0,0,2,0,-2
1619049240.9595828,-1,0,-1,0,2,0,0,2
1619049240.9627972,-3,0,-2,-3,-2,-4,-2,-1
1619049240.9646497,0,-2,-1,-1,-3,-5,-2,-1
1619049240.9757845,-1,-2,-4,-3,0,0,-1,0
1619049240.9775286,-1,1,0,0,0,0,1,-1
1619049240.9806314,0,0,0,2,-1,-2,2,0
1619049240.9824328,-2,-2,-1,-2,-1,-2,0,1
1619049241.0064082,-1,1,-1,0,-1,0,1,-1
1619049241.008234,2,-1,3,1,0,-2,0,-1
1619049241.011502,-1,-3,-5,-4,1,-1,-2,-1
1619049241.0131934,-1,0,-2,0,0,-3,-3,0
1619049241.0156786,1,2,0,1,-2,-7,-5,0
1619049241.0173573,-2,0,-4,-1,-1,0,-1,-1
1619049241.0376172,1,-1,-2,-1,-3,0,-1,-1
1619049241.0395367,-1,-1,-2,-1,1,2,2,-1
1619049241.0420666,0,-3,-3,-4,-1,4,0,-3
1619049241.0438817,-3,-4,-6,-7,-2,1,2,-1
1619049241.0469263,0,2,1,2,0,-4,-2,0
1619049241.0487201,-1,0,-2,-2,-1,3,0,2
1619049241.05757,-3,-2,0,2,-1,-1,-1,-2
1619049241.0592628,-2,0,-2,-2,-2,-2,-2,-2
1619049241.0623205,1,-2,-1,-2,-2,1,-2,0
1619049241.0640578,0,-2,1,0,0,0,-2,-1
1619049241.0718713,-1,-1,-2,-1,2,0,0,-4
1619049241.0735874,1,1,3,3,-2,-2,0,1
1619049241.0868518,0,-1,1,0,1,-4,1,0
1619049241.08857,-2,0,-1,1,0,-2,-2,0
1619049241.0947163,0,-2,-2,-1,-2,-1,1,-2
1619049241.0964267,-1,-1,2,4,0,-1,-2,1
1619049241.1032965,-3,1,1,2,-1,2,1,-1
1619049241.1050003,0,-1,-2,-3,-2,-2,-2,-2
1619049241.1178901,-3,0,-3,-6,-4,-4,0,0
1619049241.119609,1,0,-1,-3,-1,-2,-1,-1
1619049241.1226935,-3,-2,2,1,0,-2,-1,-2
1619049241.1243746,0,-1,1,0,-2,0,1,-4
1619049241.1483319,-1,-1,2,-1,-1,-1,-2,0
1619049241.150277,-2,-2,-4,-4,-2,0,-2,-2
1619049241.153506,-2,0,-2,-1,1,-3,-1,-1
1619049241.1552165,0,-1,-2,-3,0,0,-1,-1
1619049241.1575565,-2,-2,-1,-1,0,-2,-2,-2
1619049241.159291,1,-2,1,2,1,-1,0,-1
1619049241.1623867,-1,-3,2,1,1,-1,-2,-1
1619049241.1640997,-3,-3,-1,1,2,-4,-2,-3
1619049241.1780767,0,1,-3,0,-2,-1,0,0
1619049241.1797955,-1,-1,-1,-3,-2,-1,-1,-1
1619049241.1830928,-1,0,1,0,1,-1,-2,0
1619049241.1848001,-2,1,1,-2,1,0,2,-1
1619049241.201691,-1,-1,0,0,0,0,-1,1
1619049241.2034438,-2,0,-2,1,0,-1,-1,-2
1619049241.206496,-2,-1,-2,-3,0,0,1,-1
1619049241.2081816,-2,1,-1,-2,-1,-4,0,-2
1619049241.2150283,-1,-1,-2,-2,0,-2,1,-1
1619049241.2168732,-2,0,-2,1,-3,-1,0,-2
1619049241.2232444,1,0,-2,-3,-1,-2,-2,0
1619049241.224937,0,-1,-1,-1,-1,-2,-1,0
1619049241.238319,-1,-1,-3,-1,0,1,-1,0
1619049241.2401764,-3,-2,-1,-1,-3,0,-1,0
1619049241.243252,-1,-2,-1,-1,-1,-1,0,0
1619049241.2449582,0,0,-1,-3,-2,-4,1,0
1619049241.2604342,0,1,1,2,1,-1,-1,0
1619049241.2621686,-1,0,-1,0,-1,-2,-3,0
1619049241.2653863,-1,-2,-4,-3,-1,3,-1,-1
1619049241.2671075,-2,-3,-3,0,-2,2,-4,0
1619049241.2749813,-2,-2,-1,-2,-2,0,-1,-1
1619049241.2767024,0,-2,-4,-4,-1,-1,-2,-2
1619049241.2812529,2,-1,2,6,-1,-1,-2,-3
1619049241.283033,-2,-1,-2,-2,1,1,0,-1
1619049241.298809,-1,0,-1,0,-2,0,1,1
1619049241.3006768,-2,0,2,-1,0,-1,1,2
1619049241.3039918,-2,-1,-1,-1,-4,-3,1,-1
1619049241.3058617,-1,-2,-1,1,1,-1,0,-1
1619049241.3282096,1,-2,0,1,-2,-2,-3,1
1619049241.330065,-2,0,0,0,1,-1,-1,1
1619049241.33338,-3,0,1,2,0,-2,-3,0
1619049241.3350825,-3,1,0,-1,-1,-3,-2,-2
1619049241.3373876,-2,-2,-2,-2,0,-1,-2,-2
1619049241.339103,0,1,2,1,1,1,-1,-1
1619049241.3422265,-1,0,0,-4,-1,0,0,0
1619049241.3440542,-1,-2,0,0,-2,0,1,-1
1619049241.3586571,0,0,1,0,-1,-1,-1,-3
1619049241.3604035,0,-2,-5,-3,-1,-1,-2,-1
1619049241.3634458,0,3,0,-1,-3,0,-1,0
1619049241.3654292,0,1,-1,0,-2,-3,-1,-1
1619049241.3804266,-1,-1,-4,-3,-2,0,-2,1
1619049241.3823655,0,0,0,4,0,2,-4,0
1619049241.3855832,-2,-2,-2,-2,1,-1,-1,-1
1619049241.3874729,0,-1,0,0,-1,-1,-2,-2
1619049241.3952234,-1,-1,-1,-1,-3,-3,0,-1
1619049241.3970995,-2,-1,-1,-4,-2,-1,0,-1
1619049241.4033215,-2,-3,-5,-3,-1,1,0,1
1619049241.4053774,-2,-2,-2,-5,-1,-2,-3,0
1619049241.4182847,-1,-1,-1,0,-1,0,0,0
1619049241.4201052,0,-3,-4,-5,-2,4,0,-2
1619049241.4233158,-1,-1,-1,-1,-1,-2,-1,-4
1619049241.4251244,-2,-2,-4,-1,-1,2,0,-1
1619049241.44117,-2,0,-1,0,0,-3,-1,-2
1619049241.44307,0,0,0,-1,0,1,0,-1
1619049241.4465897,-1,-1,-2,-2,0,-2,-1,1
1619049241.4486732,-1,0,0,0,0,-1,-2,-1
1619049241.462989,-2,0,-1,-1,-1,1,0,-2
1619049241.4648378,0,-2,-1,1,-1,-1,-1,1
1619049241.4681063,0,-1,-1,1,1,0,1,-2
1619049241.4699714,-1,-1,0,1,-2,-3,-1,0
1619049241.4781394,-2,-3,-1,-1,-2,2,1,0
1619049241.4800265,-1,0,-1,1,0,-5,1,0
1619049241.4833395,-2,-3,-1,-3,-2,0,0,-3
1619049241.4851968,4,-1,3,-1,1,0,-2,2
1619049241.5004423,-1,1,0,-1,1,0,-1,-1
1619049241.5024364,2,1,-2,-4,-2,-1,-2,1
1619049241.5056415,0,0,-1,-1,-1,-1,-3,0
1619049241.5075202,0,-1,-4,-3,-3,0,1,1
1619049241.5155783,-1,-1,-4,-3,-2,-2,-2,-1
1619049241.5174341,-1,-1,-2,1,0,-1,-2,-3
1619049241.5233352,-1,-1,1,2,-1,-2,-1,-2
1619049241.525179,-2,1,-1,-1,0,-1,-1,-1
1619049241.5464337,-1,-2,1,-1,1,-3,0,-1
1619049241.5484493,-2,-2,1,-1,0,-4,-2,-2
1619049241.551821,0,-3,-6,-2,0,2,0,1
1619049241.5536387,-2,-2,-1,-2,-1,2,0,-1
1619049241.5605948,1,0,0,1,-1,-1,-1,0
1619049241.5624614,-3,-2,-3,-3,-2,1,0,-3
1619049241.5656707,-1,0,-1,-2,-3,-2,0,-2
1619049241.5674791,-1,1,1,0,1,-1,1,-3
1619049241.5751169,0,-1,-3,-2,0,-1,-1,0
1619049241.5770226,0,-2,0,-3,-1,-2,-1,0
1619049241.589209,1,0,2,1,3,0,-1,2
1619049241.5911186,-2,0,-2,-2,-3,1,-3,-1
1619049241.5987594,-2,-1,1,-1,0,1,0,-2
1619049241.600619,0,-1,-1,0,0,-2,-2,-3
1619049241.6038544,-1,-2,-2,-6,-1,-2,-3,-1
1619049241.6056507,-1,-1,0,0,-3,-4,-2,-1
1619049241.6209185,0,-1,-1,-2,-2,-1,-2,1
1619049241.6228926,-1,-1,0,-1,0,1,0,0
1619049241.626114,-1,-2,0,-2,-4,1,-1,-2
1619049241.6279666,0,-2,1,2,1,1,0,1
1619049241.6421018,-2,-1,-2,-3,-1,-2,-1,-4
1619049241.6439414,-6,-2,-2,-1,-2,-4,-1,-4
1619049241.6504557,8,4,0,-3,0,0,2,1
1619049241.652313,3,0,-2,0,-1,0,1,2
1619049241.6581929,-1,1,0,0,0,2,-3,0
1619049241.660072,-2,-2,1,0,1,0,-1,0
1619049241.6632936,-5,-3,-1,2,-1,-4,-1,0
1619049241.6652834,-1,-2,2,0,-1,-1,-1,-2
1619049241.6803746,1,-1,3,3,1,-2,-1,-1
1619049241.682285,0,0,-1,-1,-3,-1,0,0
1619049241.6866868,-2,-2,2,0,-2,-4,-3,-1
1619049241.6885617,-2,-1,-2,0,-2,0,-1,-1
1619049241.6944058,-2,0,0,1,-3,-7,-3,0
1619049241.6962829,-3,-2,1,-2,-2,-2,-2,-1
1619049241.7030792,-1,-3,-1,1,-1,0,0,-3
1619049241.7049496,1,-1,-2,0,-3,-1,2,1
1619049241.7188957,1,-2,-2,0,-2,0,0,2
1619049241.7209067,0,2,0,1,-1,-1,0,0
1619049241.7241733,-2,-1,-2,-1,1,2,0,0
1619049241.726021,0,0,-3,-3,1,-2,0,-2
1619049241.7484877,-3,-2,-1,2,1,0,-1,-1
1619049241.7506032,1,-1,-1,-1,2,2,1,1
1619049241.7540994,-4,0,-3,-2,0,-2,0,-2
1619049241.756059,1,0,3,-1,1,-2,0,0
1619049241.7586915,0,1,4,1,3,0,2,-2
1619049241.7605278,0,-3,-2,0,-1,-1,-2,-1
1619049241.763804,-2,1,-1,1,-4,-3,-2,-1
1619049241.7657213,-2,-3,-3,-2,-3,-1,-4,-1
1619049241.7793763,-2,1,-3,-5,-3,-2,-2,-1
1619049241.781228,1,0,0,0,-1,0,1,1
1619049241.7845669,2,0,0,-1,0,1,-1,-1
1619049241.7864127,-2,-3,-2,0,-1,-3,-1,-3
1619049241.8017478,-2,-3,-3,-2,-4,-2,-2,1
1619049241.803768,-2,0,-1,-2,-2,0,0,-3
1619049241.8071883,-1,-2,-3,-3,0,1,0,0
1619049241.8090026,-3,0,4,3,1,1,-4,-3
1619049241.8141444,-2,-2,-2,-2,-1,1,-1,-1
1619049241.8160925,-2,-1,0,-1,-3,-1,-2,0
1619049241.8406303,1,0,-1,0,-2,-4,0,1
1619049241.8426313,0,-2,0,0,-1,-5,1,-2
1619049241.8452766,1,-1,-2,0,0,-2,0,-1
1619049241.8471465,1,1,2,5,2,1,-1,0
1619049241.850518,-3,-1,0,3,-1,2,-1,-1
1619049241.8523016,-3,-3,-9,-10,-2,2,-2,0
1619049241.8679495,-5,-3,-2,-7,-3,-3,-4,-2
1619049241.8698287,-1,-1,-3,-8,-5,-2,-1,0
1619049241.8730218,-1,1,8,29,11,1,-1,0
1619049241.8749456,-3,-7,-15,-31,-13,-5,-2,-3
1619049241.8774626,-1,-7,-12,6,-10,0,1,-2
1619049241.8793294,6,20,62,25,29,0,0,0
1619049241.88298,-7,-7,-23,-22,-12,-11,-3,-4
1619049241.884847,-6,-13,-58,-37,-13,0,2,-3
1619049241.8983846,-1,3,31,8,-1,-3,-3,0
1619049241.9003553,-3,-3,-9,0,12,0,-1,-2
1619049241.903626,-1,-4,-2,2,-3,3,-1,0
1619049241.9054787,0,2,15,10,7,3,1,0
1619049241.9365973,-4,-17,-49,-29,-25,-9,-3,-2
1619049241.9386039,2,1,8,0,-2,1,-1,-1
1619049241.9420853,0,-3,-4,-27,-1,2,1,1
1619049241.944072,-1,-6,-15,-26,-4,2,0,-2
1619049241.9467742,4,12,28,76,4,2,2,0
1619049241.9486916,-3,-7,-10,-22,0,-1,-3,-2
1619049241.9520776,0,1,1,-6,-22,-9,-2,-1
1619049241.9538965,-1,0,6,3,16,-3,-3,-2
1619049241.957721,0,5,5,-11,10,3,4,1
1619049241.9595928,-4,-12,-35,7,-11,-2,1,-1
1619049241.9738688,-1,-1,11,-2,-9,2,-3,-3
1619049241.9757257,0,5,21,-9,-6,-3,-2,0
1619049241.980413,-1,-4,-14,-10,10,1,-2,-1
1619049241.9823782,-1,0,-1,-18,-10,-2,0,2
1619049241.985625,0,6,-4,-5,-3,1,2,0
1619049241.9875033,-2,-3,10,31,7,-1,-1,0
1619049241.993902,7,23,50,16,11,2,0,0
1619049241.9957478,-4,-12,-25,-23,-12,-6,0,-2
1619049242.020459,0,-4,-9,10,12,1,1,0
1619049242.0223699,1,9,31,36,7,0,2,0
1619049242.024863,0,-1,-9,-7,2,-2,0,-1
1619049242.02676,-2,-13,-39,-38,-9,5,2,-2
1619049242.0299623,7,18,51,19,-15,-8,-1,2
1619049242.0318365,1,2,2,46,27,9,0,0
1619049242.0404527,-7,-19,-33,-75,-10,-7,-4,-4
1619049242.0423784,-2,-1,13,46,-26,-8,-6,-5
1619049242.045582,0,2,-8,14,-9,1,2,1
1619049242.0474412,0,-9,-37,-46,-17,-4,0,0
1619049242.054425,1,6,30,54,58,6,-3,-4
1619049242.0562727,-2,4,-7,-11,17,7,4,1
1619049242.0716295,-14,-26,-43,-52,-26,-7,-7,-7
1619049242.073501,11,35,78,73,19,-3,-1,4
1619049242.077719,-5,-20,-60,-54,-30,-8,0,2
1619049242.0795753,2,7,21,44,20,8,4,3
1619049242.0828955,-3,-2,2,-32,19,-3,-3,-3
1619049242.0847325,0,-12,-32,-39,16,17,6,-4
1619049242.1007533,0,6,28,32,-38,-17,-6,0
1619049242.102767,-3,-9,-40,-3,50,16,1,-2
1619049242.1060834,-1,0,20,-17,29,-2,-3,-1
1619049242.107934,-2,11,27,-9,-55,-13,-3,0
1619049242.1240726,0,-15,-56,-62,-1,10,7,0
1619049242.1259496,4,18,94,119,13,-11,-13,-2
1619049242.1291132,1,-7,-16,-50,29,4,-2,-2
1619049242.1310172,-7,-19,-56,-63,-86,-28,-7,1
1619049242.1393237,-6,-27,-73,-38,-10,5,-1,-3
1619049242.1411843,21,69,76,33,23,10,7,9
1619049242.1443684,-4,-13,-63,66,12,5,3,-1
1619049242.1462896,-3,1,6,-17,-50,-27,-13,-3
1619049242.1607306,-12,-12,-20,-15,-28,-1,2,-3
1619049242.1626596,2,-3,11,-22,-31,-14,0,1
1619049242.1658835,3,2,22,38,-22,9,4,0
1619049242.167757,-2,-2,5,8,35,2,-5,-2
1619049242.1833234,7,27,67,62,30,3,-1,2
1619049242.1853158,-11,-35,-66,-102,-41,-12,-3,0
1619049242.1886861,-4,-3,-17,-35,-33,-3,2,0
1619049242.190622,-11,-11,27,60,82,5,-4,-7
1619049242.1966977,13,12,36,53,53,29,13,4
1619049242.1985345,3,-1,13,-44,-35,-16,-9,-6
1619049242.2056508,13,15,12,0,18,7,8,5
1619049242.207527,-6,-33,-105,-54,30,0,-5,-8
1619049242.2284136,10,40,100,36,11,-2,-1,3
1619049242.2304184,0,3,11,45,-15,6,5,-1
1619049242.2339597,-4,-2,21,62,62,6,-5,-4
1619049242.2359397,2,2,0,-25,-38,8,8,4
1619049242.2454956,-9,-15,-43,-53,-36,-22,-13,-7
1619049242.2475936,-12,-38,-114,-50,-50,-8,2,-4
1619049242.2514606,4,37,86,57,3,-21,-14,-3
1619049242.253719,2,10,12,26,23,13,8,1
1619049242.257576,-4,-7,-22,-33,-54,-24,-8,-4
1619049242.2598584,-17,-45,-125,-122,-76,-28,-10,-7
1619049242.265742,11,26,75,80,34,22,8,3
1619049242.268926,5,27,51,-13,-11,-8,-2,1
1619049242.2806664,-12,-18,-32,40,-29,-8,-2,-3
1619049242.2826948,-2,-1,2,24,44,3,-3,-1
1619049242.2864714,-1,-13,-25,-31,27,18,5,-1
1619049242.288309,1,-28,-60,-20,-40,-13,-11,-1
1619049242.3031569,6,14,31,19,23,9,5,2
1619049242.3049436,10,14,29,12,53,18,7,3
1619049242.3081298,-4,-3,-27,-7,-14,-8,-2,2
1619049242.309981,-4,-19,-39,-20,-50,-9,-2,-3
1619049242.3176415,-3,-5,-16,70,62,10,1,0
1619049242.3195672,6,22,65,17,0,-6,-3,-2
1619049242.324331,0,3,8,-41,-30,-4,1,1
1619049242.3261137,2,7,-1,-4,0,12,5,0
1619049242.3400047,-5,-2,16,20,-27,-12,-14,-10
1619049242.3418047,1,6,38,20,4,4,1,4
1619049242.3482144,-14,-43,-120,-30,-25,-7,-3,-6
1619049242.3500009,6,23,42,-66,-39,-23,-4,2
1619049242.363741,0,3,21,32,15,16,7,-2
1619049242.365554,-3,-5,-24,8,-6,13,6,2
1619049242.368698,-15,-31,-67,-52,-45,-31,-20,-12
1619049242.370441,6,10,1,71,71,35,15,9
1619049242.3773336,-5,-2,-28,-71,-1,-2,-3,-3
1619049242.3790913,-9,-17,-63,-51,-32,-1,-3,-2
1619049242.3842974,9,21,51,12,-20,8,13,9
1619049242.386075,-5,0,31,22,27,4,0,-1
1619049242.4007316,-2,0,0,-19,-10,-9,-2,1
1619049242.4024627,2,-16,-40,-11,23,8,1,-4
1619049242.4064062,2,-9,-52,-48,-64,-25,-7,-1
1619049242.4082632,9,18,39,54,17,8,2,1
1619049242.4231536,8,8,-2,-17,-30,-8,1,3
1619049242.425025,0,10,28,60,24,7,-1,1
1619049242.4382741,-7,-18,-66,-111,-40,-7,-2,-1
1619049242.4402947,-3,-1,-10,73,111,19,1,-4
1619049242.443161,0,6,34,-4,-33,-15,-4,2
1619049242.444978,-1,4,20,-46,-40,-19,-8,-2
1619049242.448423,1,8,45,97,29,3,3,0
1619049242.4497151,-4,-8,-24,-49,-25,5,5,-1
1619049242.4591305,-4,-11,-36,-32,-2,-9,-5,-3
1619049242.4601402,-9,-17,-39,-48,15,-1,0,-2
1619049242.4650018,10,43,106,50,35,-2,-3,1
1619049242.4680188,11,28,44,49,-10,-7,2,7
1619049242.4833329,-4,-10,-52,-44,-34,-3,3,1
1619049242.4852116,-10,-28,-65,-27,-9,-20,-12,-7
1619049242.4884384,-3,-2,-43,-17,19,12,3,0
1619049242.4903805,-6,-7,-26,-29,-50,-5,-1,-2
1619049242.4972045,3,21,101,61,98,34,3,0
1619049242.4991474,0,2,-3,4,7,6,7,1
1619049242.503926,-7,-22,-49,-41,-30,-5,-2,-2
1619049242.505719,6,16,43,54,-10,-6,-4,-1
1619049242.5359612,-2,5,4,28,14,7,1,0
1619049242.5379908,-7,-15,-46,-38,44,21,3,-4
1619049242.5415707,9,17,41,30,-9,-8,-1,2
1619049242.5434744,-6,-2,20,0,1,-8,-4,-3
1619049242.5461998,-5,-21,-67,-31,22,13,0,-3
1619049242.5481868,5,17,29,54,10,17,5,5
1619049242.5516844,5,6,10,-49,-51,-23,-8,-2
1619049242.5535488,-3,-1,5,42,-15,-12,-4,-2
1619049242.5571442,2,-2,-8,-45,-14,0,2,0
1619049242.559039,3,2,-11,13,-11,-5,0,1
1619049242.5638244,6,22,77,104,68,27,8,4
1619049242.5658839,-9,-25,-51,-47,1,0,-5,-5
1619049242.580769,9,27,64,14,-28,-12,-2,2
1619049242.5828657,1,3,17,-8,-20,-6,0,0
1619049242.5863488,-6,-19,-28,18,9,-1,-1,-5
1619049242.5882084,-1,6,13,-23,43,2,1,-2
1619049242.6029088,-14,-44,-126,19,45,9,-3,-8
1619049242.6048856,12,40,88,-61,-51,-15,-4,5
1619049242.610341,-8,-18,-47,-30,14,-3,-5,-6
1619049242.6121962,-3,-18,-50,-18,7,0,-3,-4
1619049242.6164272,-6,-14,-31,11,5,3,3,-2
1619049242.618348,-5,-17,-49,10,-11,-11,-1,-2
1619049242.6257021,4,17,20,-22,-1,-3,-1,1
1619049242.627577,-8,-20,-53,15,-9,-4,-5,-5
1619049242.6407034,4,2,2,-16,1,19,15,3
1619049242.642605,0,-1,22,9,-29,-28,-16,-2
1619049242.6458046,-3,-6,-23,-38,13,10,2,0
1619049242.6476889,-2,-5,-35,-30,-8,-2,-3,-1
1619049242.663444,7,21,62,38,-42,-11,5,4
1619049242.6655052,0,-1,16,42,35,3,-1,-1
1619049242.6690009,-6,-14,-38,-72,-1,1,-3,-4
1619049242.6709151,1,4,17,-38,4,10,0,0
1619049242.6766453,-1,0,0,19,-4,-13,-7,1
1619049242.6785796,-5,-16,-40,-45,16,8,2,-2
1619049242.6854854,0,7,27,17,-7,-12,-5,0
1619049242.6873255,-2,0,-2,-23,-9,0,5,2
1619049242.6999233,0,-3,-18,-2,34,-2,-4,0
1619049242.701941,-6,2,11,27,16,2,-3,-3
1619049242.716124,-2,-12,-41,-40,24,4,1,-2
1619049242.7181187,-4,-1,9,18,-6,-2,-3,-4
1619049242.7234476,-6,-14,-52,-51,-55,-15,-6,-4
1619049242.7254155,0,1,19,40,-11,7,2,-1
1619049242.7286522,0,1,13,32,-21,-2,3,1
1619049242.7305894,-5,-5,-13,-26,-14,-4,-6,-2
1619049242.7532604,1,-7,-23,-43,-14,-2,1,-2
1619049242.7552633,7,25,69,-4,-16,7,5,3
1619049242.7584648,0,4,27,88,26,9,3,0
1619049242.7603152,6,13,50,35,-14,0,1,2
1619049242.7680542,-4,-8,-36,-73,-7,6,-2,1
1619049242.7699194,-4,0,-4,-17,23,16,0,-5
1619049242.773034,3,3,17,61,-22,-10,-1,1
1619049242.7748778,-7,-18,-52,-76,52,17,2,-4
1619049242.7837439,4,13,50,41,15,8,2,2
1619049242.7855968,3,-1,-10,14,-5,-4,2,2
1619049242.788853,-4,-1,18,6,14,4,-3,0
1619049242.7907233,-4,-17,-60,-17,-18,1,1,-2
1619049242.8059216,-2,2,3,-7,-15,-7,-3,-1
1619049242.8078241,-4,-13,-39,-1,22,-1,-4,-5
1619049242.8110461,-4,-14,-55,-34,-14,4,3,0
1619049242.8129013,-2,-4,-8,-9,-7,-10,-1,-2
1619049242.8204565,2,1,-7,15,-20,0,1,4
1619049242.8224318,-7,-20,-84,-38,4,-26,-10,-4
1619049242.825643,3,19,33,40,16,8,3,4
1619049242.8274393,2,8,11,-28,-30,-15,-5,-1
1619049242.8430715,-5,-12,-33,-13,-9,-6,-4,-4
1619049242.844898,-5,-8,-24,2,16,11,1,0
1619049242.8481367,-2,-12,-23,-65,-24,-3,-3,-2
1619049242.8500054,-5,-9,-25,-2,-15,-8,-4,-2
1619049242.856533,4,14,64,34,38,13,4,2
1619049242.8584366,5,4,4,-13,-15,-10,-1,1
1619049242.8652754,-2,0,1,-4,-22,-8,-4,-2
1619049242.8672144,-1,-4,-13,28,36,8,1,0
1619049242.8797147,0,3,18,-18,-13,-25,-12,-4
1619049242.8816116,1,17,74,59,30,13,5,1
1619049242.8884156,-4,-10,-30,7,30,0,-4,-4
1619049242.8903384,4,11,30,-9,-22,-5,2,3
1619049242.9038267,-6,-14,-51,-48,-12,-8,-5,-3
1619049242.9058342,-12,-27,-66,-33,-3,5,-2,-7
1619049242.909217,16,50,86,18,0,8,5,7
1619049242.9111292,4,12,29,49,30,13,2,3
1619049242.9164507,-3,-7,-20,-44,-9,-4,-3,-4
1619049242.918468,4,16,51,16,-29,5,6,7
1619049242.9255846,-11,-29,-62,-40,42,1,-7,-11
1619049242.9274676,3,8,34,18,-16,-8,-2,1
1619049242.947959,5,11,32,41,10,0,0,2
1619049242.9500115,-3,-11,-37,-39,4,4,1,-4
1619049242.9534922,-1,-6,0,2,-27,-5,-1,0
1619049242.9554071,2,11,36,22,-5,-4,2,0
1619049242.963213,-6,-13,-27,-15,5,1,-1,-3
1619049242.965086,8,17,42,25,-34,-13,-5,0
1619049242.9683897,-8,-26,-64,-17,6,4,3,-2
1619049242.9702165,-7,-4,-12,-33,-31,-3,-8,-7
1619049242.9767811,-3,-1,-1,-6,-17,-1,0,0
1619049242.9786742,-2,-1,-6,23,35,4,0,1
1619049242.991978,-3,-10,-35,-33,8,-9,-4,-3
1619049242.993879,-1,-12,-33,25,3,-6,-3,-1
1619049243.0008068,4,10,12,-22,-17,1,3,4
1619049243.002728,-7,-6,-2,28,-6,-13,-7,-3
1619049243.006086,1,2,-3,-29,-52,-19,-4,2
1619049243.0079417,-5,-15,-33,-39,-10,-10,-3,-2
1619049243.023232,5,19,54,69,42,2,1,1
1619049243.025092,5,16,51,31,-1,3,2,0
1619049243.028416,-7,-15,-29,-43,-67,-15,-5,-5
1619049243.0303319,3,12,33,17,16,4,3,3
1619049243.0370085,-2,-2,3,-12,-2,1,-1,-1
1619049243.0389044,0,4,3,15,13,-2,-2,-1
1619049243.0453193,1,12,42,34,13,23,5,0
1619049243.0472126,3,2,-1,-18,-19,-2,0,2
1619049243.06084,-4,-19,-64,-47,10,-1,-2,-4
1619049243.0627716,1,7,20,16,5,1,1,0
1619049243.0661476,-4,-4,-16,-8,-17,-3,1,0
1619049243.068012,1,0,-1,7,30,11,1,-1
1619049243.0831854,-5,-6,-13,-8,-36,-17,-5,-5
1619049243.0852544,5,8,11,36,22,4,1,2
1619049243.088684,-7,-14,-30,-22,-18,-13,-5,-4
1619049243.090712,5,10,48,51,4,7,5,1
1619049243.1065762,2,15,45,30,21,6,0,0
1619049243.10845,-4,-7,-38,-62,-3,-4,-4,-2
1619049243.1116261,-4,-8,-25,8,7,-4,-3,-4
1619049243.1134374,-2,2,11,18,-8,-4,0,-2
1619049243.120484,-1,-6,-10,16,-2,13,4,-3
1619049243.1225088,-5,-18,-55,-39,4,-1,-3,-6
1619049243.1257522,8,15,41,36,-8,-7,0,9
1619049243.1275778,-3,-7,-38,-49,-18,-7,-3,-2
1619049243.1430745,0,-8,-17,19,-9,-5,-2,2
1619049243.1449666,-4,-10,-22,16,15,12,2,-3
1619049243.1481907,1,6,19,-40,-14,-1,0,-2
1619049243.1501007,3,6,0,34,40,19,7,4
1619049243.180816,-10,-16,-28,6,73,20,0,-6
1619049243.1828725,4,8,20,-18,-11,-5,0,3
1619049243.1886072,6,15,61,70,29,6,3,1
1619049243.1906276,-2,1,2,29,4,-6,-4,-1
1619049243.1931202,2,5,15,-8,-43,-12,-4,-1
1619049243.195029,-3,-1,6,12,26,7,1,-1
1619049243.1982226,0,-2,-2,1,-9,0,-1,0
1619049243.200259,-5,-6,-6,-16,-13,-3,0,0
1619049243.210519,1,4,12,-19,-12,1,2,2
1619049243.2125075,3,6,7,15,-19,-13,-5,-1
1619049243.2157514,-5,-18,-59,-24,-32,-12,-3,-3
1619049243.2176158,3,11,45,56,50,14,5,0
1619049243.2256885,-4,2,3,-19,-17,-1,0,-1
1619049243.22755,-7,-22,-60,-79,-19,-5,-4,-4
1619049243.2307947,-2,10,34,57,28,13,3,-1
1619049243.2326791,-3,-11,-35,-55,-66,-22,-10,-5
1619049243.240982,-1,8,37,56,6,5,2,-2
1619049243.2428908,-1,-2,-9,-27,-55,-13,-2,-2
1619049243.247864,0,0,-4,-1,34,8,1,-1
1619049243.2497945,0,0,-4,-30,-39,-13,-1,-2
1619049243.2634227,6,17,48,35,23,10,4,5
1619049243.265161,1,13,54,64,-24,-3,2,3
1619049243.2689793,-2,-3,-5,-53,32,0,-4,-4
1619049243.2708306,-8,-17,-37,-62,-22,-1,-2,-3
1619049243.2854862,4,6,10,12,5,-5,1,2
1619049243.287383,3,6,16,34,8,1,1,1
1619049243.2906651,1,-1,-6,-39,-15,-2,2,0
1619049243.2925231,-1,8,38,38,0,-9,-4,-2
1619049243.3000581,-10,-30,-97,-85,9,6,-3,-5
1619049243.3018813,11,27,77,51,44,6,2,4
1619049243.3141782,-1,0,1,9,-8,1,-2,-2
1619049243.316004,-3,-12,-39,-2,0,-7,-3,-1
1619049243.3233168,-5,-9,-28,-16,-37,-14,-4,-2
1619049243.325208,-1,-5,-15,-14,-8,-3,-2,-2
1619049243.3284883,-10,-26,-74,-20,34,1,-4,-6
1619049243.3303761,5,18,32,-15,-21,-7,-1,3
1619049243.3623421,-6,-17,-37,-35,-1,-16,-7,-5
1619049243.3643374,-7,-14,-42,-10,18,1,-3,-5
1619049243.3679168,0,5,34,37,-37,-10,0,1
1619049243.3698738,-6,-18,-30,11,38,4,-1,-2
1619049243.3723636,3,6,13,-3,-3,-1,-1,-2
1619049243.3743281,-2,0,1,-45,-21,0,2,3
1619049243.3775158,-3,7,23,15,-10,-11,-6,0
1619049243.3792968,-1,3,12,17,-24,2,-2,-1
1619049243.3907993,-5,-17,-67,-23,51,23,4,-3
1619049243.392657,2,15,27,14,5,3,0,0
1619049243.3958797,7,13,48,25,7,3,0,0
1619049243.3976412,1,3,-6,-25,-9,-16,-4,-1
1619049243.4055202,-3,-3,-2,7,-12,1,2,2
1619049243.4073963,-6,-15,-27,-9,10,7,2,-3
1619049243.4106183,0,3,-5,16,25,3,-1,-1
1619049243.4124181,-4,-8,-23,-44,-43,-4,-4,-5
1619049243.4198828,4,20,88,92,22,-11,-4,-1
1619049243.4216723,-4,-11,-30,-12,8,0,0,-2
1619049243.4268599,3,5,17,-1,-17,-7,0,4
1619049243.4287276,-5,-14,-27,-3,75,16,4,-2
1619049243.4429767,7,22,68,64,-40,-21,-9,-3
1619049243.4448068,-2,-4,-8,35,7,-2,-3,-1
1619049243.4480717,-1,0,0,5,12,9,2,-1
1619049243.4501216,-3,-14,-23,-14,-28,-14,-5,-3
1619049243.4665585,1,-1,-21,-38,-2,2,3,3
1619049243.4686105,0,-1,-7,5,-54,-26,-5,-1
1619049243.471905,-5,-9,-19,-9,69,8,-2,-5
1619049243.4737208,0,6,18,12,21,12,1,-1
1619049243.4801044,-1,4,14,33,-18,-5,-2,0
1619049243.4819643,-1,-1,0,-36,-12,3,0,-1
1619049243.4864612,-2,-7,-19,-40,-44,-5,-1,-2
1619049243.4882977,5,11,20,-3,-4,-5,-1,3
1619049243.502982,-4,-13,-37,-22,-25,0,3,-1
1619049243.5048757,1,7,37,36,18,0,-3,-3
1619049243.5080721,2,1,-17,-40,-21,-1,1,0
1619049243.5098789,-3,-8,-21,5,20,9,2,-1
1619049243.5252395,13,40,99,57,0,-7,0,6
1619049243.5271423,-5,-13,-52,-34,-16,-2,-1,-1
1619049243.5313637,-6,-14,-38,-8,5,2,-2,-4
1619049243.5332148,6,20,47,48,9,-8,1,4
1619049243.5401037,-12,-34,-114,-73,-8,0,-1,-7
1619049243.5419197,5,20,77,58,55,12,-1,3
1619049243.546966,9,19,39,58,7,1,4,4
1619049243.5488408,-5,-12,-35,-25,31,10,2,-4
1619049243.5632005,-9,-23,-66,-109,-49,-30,-14,-7
1619049243.5649989,-3,-3,7,20,30,9,0,-2
1619049243.5682828,-3,-4,-12,9,0,1,-2,-1
1619049243.570105,2,13,51,28,7,6,5,1
1619049243.5854957,0,-1,-15,-15,-13,2,-1,-1
1619049243.5873866,-2,-10,-32,7,7,0,-3,-4
1619049243.5936182,-1,-9,-22,-73,-20,-1,-2,0
1619049243.5955591,-4,-7,-18,15,6,-9,-7,-2
1619049243.6073885,0,6,33,40,8,4,2,2
1619049243.6092474,-4,-4,-14,-14,-46,-9,1,-1
1619049243.615356,2,-1,0,9,-2,8,2,2
1619049243.617231,-3,-15,-51,-62,-78,-7,2,-1
1619049243.6221359,-1,-10,-24,-21,4,-4,-7,-3
1619049243.62398,0,7,12,-25,-10,-6,0,3
1619049243.6265607,-6,-9,-24,26,15,4,-2,-2
1619049243.628418,-1,1,2,-18,-17,-1,-1,-1
1619049243.6448526,5,6,31,56,25,10,9,5
1619049243.6467938,-1,-11,-46,-83,-21,-11,-8,-5
1619049243.649254,-2,10,21,14,-4,0,0,-1
1619049243.651151,-1,0,8,17,7,-10,-4,-2
1619049243.6684985,1,6,23,30,73,23,4,0
1619049243.6704845,-5,-11,-32,-4,-11,-8,0,-1
1619049243.6730988,-2,1,1,-35,-21,-12,-3,-2
1619049243.6749885,-2,-10,-38,-10,6,11,3,0
1619049243.6823933,6,21,49,12,-10,-6,0,1
1619049243.6842937,0,-2,6,0,-15,-1,-3,1
1619049243.686872,-2,1,5,3,46,12,2,-2
1619049243.6886294,-2,-12,-41,-59,-33,2,-2,-3
1619049243.704842,-3,0,11,17,11,15,3,-1
1619049243.706805,3,8,12,6,-28,-8,-1,0
1619049243.7093103,0,-1,-7,-23,-19,-11,-4,0
1619049243.7111657,0,1,3,22,14,-1,0,0
1619049243.7284827,0,-3,1,7,9,8,2,-1
1619049243.7303538,-1,-4,-3,-57,-20,-17,-6,-1
1619049243.732799,-2,-1,17,80,38,21,2,-2
1619049243.7346542,-4,-5,-17,-45,-22,6,-3,-6
1619049243.74237,4,17,50,33,-9,1,3,3
1619049243.744225,-3,-4,-1,54,33,14,2,-2
1619049243.7467892,0,-5,-14,-39,-73,-26,-4,0
1619049243.7486334,0,1,3,19,48,25,2,-2
1619049243.7731879,-2,-9,-27,-44,-18,-20,-11,-4
1619049243.7752135,-1,0,-6,-14,0,10,4,2
1619049243.7797358,-2,-1,3,2,-22,-13,-4,-1
1619049243.7816007,7,16,58,77,52,14,5,6
1619049243.7883084,-3,-8,-30,-17,-39,-13,-5,-3
1619049243.7901921,1,4,24,35,12,5,1,-2
1619049243.7927792,-3,-17,-52,-78,-34,-6,-2,-3
1619049243.794679,2,9,39,41,-45,-18,-3,1
1619049243.8038394,-6,-18,-55,-65,21,10,1,-3
1619049243.8056636,1,7,15,-14,-18,-6,-1,1
1619049243.8101695,3,14,62,102,75,14,5,1
1619049243.8120575,-2,-11,-41,-102,-31,-16,-4,-2
1619049243.8249822,0,-4,-12,-30,-37,-1,0,-1
1619049243.8268402,-7,-13,-34,-16,-11,-6,-8,-7
1619049243.829231,3,10,27,15,17,7,4,3
1619049243.831107,1,11,36,38,4,-3,2,0
1619049243.8491297,-3,-9,-12,-3,4,-4,-2,-3
1619049243.8513174,-4,-4,-16,-36,-22,-4,-1,0
1619049243.8539608,-4,-7,-10,-7,-3,3,-4,-2
1619049243.8558228,-6,-16,-45,-6,4,-7,-6,-5
1619049243.8629448,-2,3,8,21,2,-3,-3,2
1619049243.864803,2,3,14,14,6,3,2,3
1619049243.8772798,-3,-2,10,40,34,-1,-4,-5
1619049243.8791106,2,2,9,20,-15,-7,-2,2
1619049243.8849027,-6,-11,-40,-30,14,4,1,-2
1619049243.8868232,0,-3,-18,2,-1,-3,-1,-1
1619049243.889369,1,3,9,-11,-27,-3,-1,0
1619049243.8912292,-1,-2,-8,-12,9,-2,-4,-4
1619049243.9086528,-1,-3,2,-25,-5,3,0,0
1619049243.910558,0,4,33,78,23,6,2,-1
1619049243.9130433,-1,-4,-20,-19,-12,-3,-3,-1
1619049243.9149075,1,7,17,16,4,-3,2,2
1619049243.9226043,-2,-11,-23,-17,-3,-1,0,-4
1619049243.924456,6,25,76,26,12,8,4,3
1619049243.9269578,-3,-1,8,24,6,6,1,0
1619049243.9287329,-4,1,5,-21,3,-3,-4,-2
1619049243.944902,-2,0,2,2,-8,-4,-3,0
1619049243.9468274,-2,-13,-38,-35,-5,1,0,-1
1619049243.9492881,1,-4,-5,-13,-3,1,1,-2
1619049243.9511857,0,-1,-2,5,7,6,4,-3
1619049243.9684362,1,5,24,29,4,0,-2,1
1619049243.9704683,-2,-1,-2,-14,-4,-2,-2,-2
1619049243.973023,-1,0,-7,-24,-10,-5,-2,1
1619049243.9748256,-1,-7,-19,-6,3,-1,1,-2
1619049243.9823065,1,2,-1,-6,-8,-1,0,0
1619049243.9842055,1,5,25,82,13,-7,-6,-2
1619049243.9867868,-2,-6,-29,-54,-5,-4,-3,-3
1619049243.9886339,-2,0,-4,-13,-3,1,-2,0
1619049244.004879,-9,2,13,13,-2,-5,-2,-1
1619049244.0067992,-5,-1,-7,-20,-5,0,0,-1
1619049244.0092971,-2,-1,-7,0,-5,-4,-2,-3
1619049244.0111217,-2,-2,10,21,4,2,-2,-2
1619049244.028718,7,4,4,4,7,2,0,0
1619049244.0306113,1,-7,-32,-22,-3,-1,0,-1
1619049244.0331244,2,6,22,3,-9,-6,-1,1
1619049244.035051,1,2,3,1,3,0,-2,0
1619049244.0423503,-4,-5,-5,4,3,11,1,-2
1619049244.0442057,-1,-3,-7,16,14,5,0,-3
1619049244.0467687,5,5,15,8,-2,1,0,1
1619049244.0485287,1,1,2,12,8,2,-1,0
1619049244.064873,-1,0,2,-9,-11,-4,-1,-3
1619049244.0668416,-2,-4,-5,-16,-5,-2,0,0
1619049244.0693605,2,-5,-4,20,8,1,1,-2
1619049244.0712657,-2,-4,0,1,2,-1,-2,-3
1619049244.1046836,4,7,10,28,5,-6,0,1
1619049244.106652,-2,-1,-3,-17,-3,-2,-2,-1
1619049244.109316,-4,-3,-8,-8,-7,-2,-3,-3
1619049244.1112297,-2,-2,-9,-13,-6,-2,-1,0
1619049244.1143582,0,-4,9,34,7,2,-1,-1
1619049244.1161742,-2,-8,-11,-47,-6,-2,-3,-2
1619049244.118793,-1,1,-4,-5,-10,-5,-2,-1
1619049244.120634,-4,-3,-2,0,2,1,-2,0
1619049244.1246793,-2,5,6,2,-1,-1,0,-2
1619049244.1265311,3,0,-1,-3,-7,-7,-1,1
1619049244.1290002,-1,-5,-7,4,7,8,3,-2
1619049244.13084,3,-2,2,-11,-4,0,-2,-1
1619049244.1500103,4,2,5,-6,-4,-6,-3,1
1619049244.1522505,-3,2,-1,6,-1,0,-2,0
1619049244.1552274,-3,0,-4,-3,0,-1,0,1
1619049244.1575162,1,0,6,5,-3,-2,2,1
1619049244.1626327,-1,-2,-3,-4,3,1,2,0
1619049244.1650798,-2,-3,-5,-8,-1,-1,2,-2
1619049244.1691253,2,3,3,-3,-6,-1,-2,-1
1619049244.1717541,0,3,2,9,4,3,1,0
1619049244.1941578,-1,-2,0,1,0,-1,-1,0
1619049244.1961346,-4,-2,-1,-6,-4,1,0,0
1619049244.1988828,-4,-2,-5,-3,-4,-4,-2,-1
1619049244.200869,-2,-2,0,0,-2,-1,-1,-1
1619049244.2081563,-3,-4,-4,-4,1,0,0,-3
1619049244.2102861,1,0,-2,-7,-6,0,-2,-2
1619049244.2127209,0,0,0,13,6,-1,1,1
1619049244.2145662,-1,0,-1,-10,-7,-2,-2,-1
1619049244.2224615,0,-1,-1,-6,-5,-2,-3,1
1619049244.224331,1,-2,-2,0,1,2,-2,-2
1619049244.2269433,-2,-1,-1,-6,-3,0,1,0
1619049244.228774,0,4,3,8,0,-5,-3,-2
1619049244.2451682,2,-1,-4,-4,0,-1,0,0
1619049244.2472293,-1,2,5,1,-2,-5,-1,-1
1619049244.249694,0,-3,1,5,-2,-4,-3,0
1619049244.251609,-2,0,1,4,-2,-6,-3,-1
1619049244.269349,0,0,-4,-3,-4,-5,-2,0
1619049244.2713733,0,1,1,-1,1,0,-1,0
1619049244.2740457,-3,-2,-2,-8,1,-2,0,-2
1619049244.2758324,-1,0,-1,6,1,1,1,0
1619049244.2830079,-3,-1,0,-8,-5,0,-2,0
1619049244.2849143,-1,-2,-1,2,-2,-3,-2,-1
1619049244.287457,0,-2,-1,-3,1,0,-1,-2
1619049244.2893262,1,-2,-3,0,0,1,0,0
1619049244.3047209,0,-1,4,3,2,0,-1,-2
1619049244.306695,0,0,-2,-3,-1,-1,-1,-1
1619049244.3092103,0,-1,-2,-5,-1,0,-3,-1
1619049244.3110743,-1,-3,2,2,1,0,-2,0
1619049244.3282983,-1,0,-3,0,1,-1,0,-1
1619049244.3302028,0,-1,-2,-1,-2,-2,-1,-1
1619049244.3327155,-1,-2,0,-3,-1,-1,0,0
1619049244.3347077,0,-2,-1,-3,-2,3,-1,0
1619049244.3423066,-1,-1,-2,-1,0,1,0,-1
1619049244.3441749,-1,-2,-2,2,-2,0,0,0
1619049244.3467164,-1,-1,-2,-3,-1,0,-1,0
1619049244.3485193,0,-2,-1,-3,-2,0,1,-1
1619049244.3651507,-3,-2,-1,-2,0,1,0,-1
1619049244.3673093,-3,-2,-3,-1,-2,3,0,-1
1619049244.3699026,0,-2,0,0,-1,-2,0,-2
1619049244.3718596,-3,-1,-2,1,0,0,-2,-1
1619049244.3883276,-1,-2,-2,-2,-1,-3,0,-2
1619049244.3902137,0,1,-1,-2,2,-1,-2,0
1619049244.392663,-2,0,-1,1,-1,0,-1,0
1619049244.3944654,-1,-1,-2,-2,-2,-2,-1,-1
1619049244.4022696,-2,-2,-2,-2,-2,-1,-2,0
1619049244.4041398,0,-1,1,0,-2,0,1,-1
1619049244.4067132,-1,0,0,-1,-3,-2,-2,-2
1619049244.4085803,-2,-1,-1,-2,-1,-1,0,-1
1619049244.4246793,-1,0,0,0,0,-1,-2,1
1619049244.4265704,0,-2,-2,0,0,-2,0,0
1619049244.432043,-2,-5,-7,-8,-8,-4,0,-1
1619049244.43389,-1,-1,0,1,0,-1,0,-1
1619049244.4482803,-2,1,-1,-1,-1,0,-1,-1
1619049244.4501073,-3,0,-2,-4,-1,-1,1,-1
1619049244.4527187,-1,-1,-1,0,3,2,-1,-2
1619049244.4546583,0,-2,-2,2,0,-2,0,0
1619049244.4707072,0,-3,0,-3,-1,-2,0,-2
1619049244.4726717,1,-1,-1,2,-2,0,-2,-2
1619049244.4752157,-1,0,0,-1,-2,-1,-1,-2
1619049244.4772542,0,2,0,-3,-2,-1,-1,0
1619049244.49354,-1,-1,-2,0,-1,3,-1,-1
1619049244.4953847,-2,-1,-1,-1,0,-1,-2,0
1619049244.4978895,0,0,-1,-2,-1,0,0,0
1619049244.4996655,-1,0,1,1,0,0,0,-3
1619049244.5082588,-3,-2,-3,-1,-2,-1,-1,-1
1619049244.5101883,1,0,2,0,-2,-7,-2,1
1619049244.5126407,2,1,1,2,1,-2,0,0
1619049244.5145311,-1,-1,-1,-2,0,-1,-1,-2
1619049244.5224013,0,1,0,0,0,-1,-1,-2
1619049244.5242643,-2,-3,-5,-2,-2,2,0,-1
1619049244.526833,-2,0,1,0,-2,0,-3,2
1619049244.5287025,-2,0,0,-1,-1,-1,-1,-1
1619049244.5455644,-2,0,0,-1,0,-1,1,0
1619049244.5475368,-2,-3,-1,-1,-1,-2,-1,-2
1619049244.5500183,2,-4,-1,-1,0,0,1,0
1619049244.5519826,-4,-2,-3,-2,-1,-1,-2,-3
1619049244.5687895,0,0,-3,1,-2,-2,-1,-1
1619049244.570772,-2,0,-2,-1,-1,-1,0,0
1619049244.5732503,-2,-3,-2,-1,0,-2,-1,-3
1619049244.5751486,2,2,1,1,-4,-2,-1,1
1619049244.5822601,-2,-2,2,0,-1,-1,0,-1
1619049244.5842998,-3,-2,-2,-3,-1,-2,-1,-3
1619049244.586874,0,0,0,-1,0,-1,-3,1
1619049244.5887616,0,-2,-3,-1,0,2,0,1
1619049244.6048133,0,0,-1,-2,0,-2,-2,-1
1619049244.6067934,0,-1,-1,0,0,0,-1,0
1619049244.6092691,-1,0,1,2,-1,-4,-2,-1
1619049244.6111531,-1,-1,-3,-3,-1,0,0,-2
1619049244.6288881,1,0,-1,-3,-3,-2,-1,1
1619049244.6309006,0,0,-1,-1,-1,0,-1,1
1619049244.6334867,-1,-1,-2,-1,-2,-1,-1,-1
1619049244.6353693,-2,-1,-2,0,-2,1,-2,-1
1619049244.641833,-2,-1,-1,-1,1,2,1,-1
1619049244.6437771,-1,-2,-1,-3,1,1,2,0
1619049244.6575577,-1,-2,1,0,2,-1,-1,-2
1619049244.6594791,1,-2,-1,-1,-2,-2,-1,-1
1619049244.6646738,0,-2,-1,-1,-1,1,-2,1
1619049244.6665444,-1,0,-2,-2,-5,-1,-2,-3
1619049244.66936,-2,-1,-4,-1,-1,-1,-1,1
1619049244.6711946,-3,-1,0,0,0,-1,-2,-1
1619049244.7037318,0,0,2,0,-2,-1,-2,-3
1619049244.7057524,0,-1,-2,-3,-2,0,0,-2
1619049244.7086227,1,1,1,4,0,0,-1,0
1619049244.7106767,-2,-2,-2,-3,-1,-1,0,-2
1619049244.7139766,0,1,-3,0,0,-2,0,0
1619049244.7158077,1,-1,-1,1,0,0,-2,-1
1619049244.7183585,-1,-2,-2,-4,-2,1,-1,-4
1619049244.7202039,-3,-2,-1,-2,1,0,0,-1
1619049244.72521,0,-1,-1,-1,1,-1,0,-1
1619049244.7270663,-1,1,0,-1,-1,-1,0,0
1619049244.7295284,-2,0,-1,-1,0,1,-1,-1
1619049244.7313313,0,-4,-2,0,-1,0,0,-1
1619049244.7479577,-2,-2,-3,-1,-2,0,0,-2
1619049244.7497194,-1,-1,-1,1,-1,-2,1,0
1619049244.755078,-2,-1,0,0,-1,0,0,-2
1619049244.7569013,0,-1,-1,-1,0,-1,-2,0
1619049244.7614307,-4,-2,0,0,0,-1,-2,0
1619049244.7632833,-2,-2,0,-2,-2,-3,-1,1
1619049244.7697423,0,-1,-1,-2,-1,1,-1,-1
1619049244.7715669,1,1,0,-1,-1,2,1,1
1619049244.7937884,-2,-1,-1,0,0,0,-1,-1
1619049244.795839,-1,-1,-1,1,1,-2,0,-4
1619049244.7985952,-2,0,0,-1,-3,-4,1,0
1619049244.8005087,0,1,-1,-2,-4,-2,0,-2
1619049244.8084705,-1,-2,-1,-1,0,-2,-1,0
1619049244.8104527,0,0,2,-1,-1,1,1,0
1619049244.8131804,1,-2,-1,-1,-2,-3,-2,-1
1619049244.815129,-2,-1,-2,-1,1,3,-1,-1
1619049244.8383756,0,-1,-1,-3,0,0,0,-2
1619049244.8403158,-5,-2,-3,0,-2,-1,-4,-2
1619049244.8470225,1,0,-2,-2,-1,1,1,1
1619049244.8488762,1,0,4,4,-2,-4,-2,-2
1619049244.8522232,-2,-1,1,1,-3,-5,-1,-1
1619049244.8540554,2,1,4,3,0,0,-1,0
1619049244.8565557,-2,-1,-1,-1,-1,0,0,1
1619049244.8585033,0,1,-1,-1,-2,-2,-1,0
1619049244.868668,1,-1,0,0,-2,-1,0,0
1619049244.8705502,-1,-1,-3,-1,-1,0,0,-2
1619049244.8730829,-3,-1,0,1,1,-2,0,-3
1619049244.874972,-1,-2,0,-2,-1,-3,0,-1
1619049244.8908634,-1,-3,-1,-1,-2,-2,-1,-1
1619049244.8926868,0,0,-1,-1,-2,0,0,1
1619049244.8951886,-2,-2,-2,0,-1,-1,-2,0
1619049244.8969812,-2,-2,0,0,-2,-1,1,1
1619049244.9062066,0,-1,-2,-2,0,-2,0,-1
1619049244.908021,-1,0,-2,-2,1,-1,-2,0
1619049244.910483,-2,0,-3,-1,-2,-2,-1,-2
1619049244.91232,-2,-3,-1,-4,-2,3,-1,-1
1619049244.9358997,1,-1,0,-1,0,0,-2,-1
1619049244.9380221,0,-1,-2,-2,0,-1,-1,-1
1619049244.9408908,-2,-3,-2,-3,1,-1,-3,-2
1619049244.9428644,-2,0,-3,-2,1,-2,-1,-3
1619049244.950613,-2,-2,-3,0,0,-1,-1,0
1619049244.9526916,1,-3,0,-1,-2,-2,0,-1
1619049244.9553075,0,0,-2,-1,1,0,2,2
1619049244.9571373,0,-1,-1,0,0,-2,-1,0
1619049244.964698,0,1,-1,0,-1,-3,-3,-2
1619049244.9665658,1,0,-1,0,1,-4,-2,0
1619049244.969205,-1,-2,-2,-1,-1,-2,2,0
1619049244.9710612,-1,-1,0,-1,0,-1,-2,-1
1619049244.987966,0,-2,-1,-1,-2,2,1,0
1619049244.9897804,-3,-2,-1,-3,-1,1,-1,1
1619049244.9923322,1,1,0,-1,-2,-1,-1,-3
1619049244.9941676,-2,0,-1,-1,-1,-1,0,-1
1619049245.011109,-1,0,5,5,2,-1,0,-2
1619049245.0131018,1,0,-1,2,1,-6,-2,0
1619049245.0157428,1,1,0,-2,-2,-2,-2,1
1619049245.0176716,-1,-1,-1,0,1,-2,0,-1
1619049245.0254164,0,0,-2,-2,-1,1,1,-1
1619049245.0273817,-2,-2,-2,-1,-3,2,-1,-2
1619049245.0298612,1,-3,-1,-1,1,0,-2,-3
1619049245.0316935,0,-2,-3,2,0,0,-1,0
1619049245.048462,-1,0,-2,-1,1,1,-1,0
1619049245.0504808,-2,0,0,0,-2,-1,0,-1
1619049245.0532582,0,0,-2,0,1,0,0,0
1619049245.0551457,0,0,-2,-2,0,1,-3,-1
1619049245.070461,-1,1,-2,-2,-4,-1,0,-1
1619049245.0726717,0,-2,1,0,1,1,-1,-1
1619049245.07721,-4,-3,1,2,-1,-2,-2,-3
1619049245.079103,0,0,0,1,-2,-2,0,-2
1619049245.0853264,0,0,1,2,-2,-3,-3,-1
1619049245.087244,-2,-2,-2,-1,-1,1,-1,-2
1619049245.0897465,-1,-1,-2,-1,-2,0,0,0
1619049245.091641,-1,-1,-1,-1,-1,-1,-1,0
1619049245.1083596,0,-2,-4,-2,-1,-3,1,1
1619049245.1103811,-2,-2,-1,-2,0,1,0,-2
1619049245.1128483,0,-1,-3,-3,-1,-2,0,1
1619049245.114707,-1,0,-3,-2,0,-1,1,0
1619049245.1306503,-2,-3,-2,-2,-1,0,0,-2
1619049245.1325932,-2,1,2,4,-2,-3,-3,-2
1619049245.135312,-2,-1,-3,-1,-2,1,-2,-1
1619049245.1371856,-1,-3,0,-2,1,0,-2,-1
1619049245.1447544,-1,-2,-1,-4,-3,-2,0,-1
1619049245.1466675,0,1,-2,-1,0,-1,-1,1
1619049245.1491842,-1,-1,-1,-2,0,-1,-1,1
1619049245.1510453,-1,0,0,0,-1,-3,-1,-1
1619049245.1684716,0,0,-1,-1,1,0,-1,-1
1619049245.1706412,-1,-1,-2,-2,-2,-1,0,-1
1619049245.1732175,1,1,1,2,-1,-1,0,-1
1619049245.1752264,1,-2,-2,0,-1,-2,-2,0
1619049245.19141,-2,-1,0,-1,0,-1,-1,-2
1619049245.1932392,0,0,-1,-1,-1,-1,0,0
1619049245.2052417,-1,1,0,-2,-2,-2,-3,0
1619049245.207117,-4,-1,1,1,-1,0,0,-2
1619049245.2224665,-1,-1,-2,1,-2,-1,-3,-1
1619049245.224505,2,-3,-1,-2,-2,-2,-1,-1
1619049245.2271667,-2,-1,-1,-1,-3,0,0,0
1619049245.2290156,-2,-3,-3,-2,-2,-1,-1,0
1619049245.2322462,-1,-3,0,0,-1,-1,-1,-1
1619049245.2340803,-1,0,-3,-1,0,1,1,-1
1619049245.2366292,-1,-1,-1,-2,1,-2,0,0
1619049245.238503,-1,-1,-3,-3,-3,0,-2,1
1619049245.250798,-2,1,1,1,-1,1,-1,1
1619049245.252709,1,0,0,-1,0,-1,-1,-1
1619049245.257341,-2,0,0,0,-2,0,0,-1
1619049245.2591898,2,-1,-3,-2,-4,-1,0,0
1619049245.2647502,0,0,-3,-2,-2,-1,0,-1
1619049245.2666202,-1,-2,0,0,0,-1,0,-1
1619049245.269256,0,0,1,1,-1,-3,-2,-1
1619049245.2711797,-2,-1,0,0,-1,0,-2,0
1619049245.2879364,-1,-1,-3,-2,-2,-2,-1,-1
1619049245.2897437,-2,-1,-1,0,-1,0,-1,-3
1619049245.292281,-2,-1,-2,-1,0,-2,1,-4
1619049245.2940726,-2,0,1,-2,0,0,-2,0
1619049245.3109446,-1,-2,-1,-4,1,-2,-2,0
1619049245.31292,-2,-1,-1,-1,0,-2,1,-2
1619049245.31549,-2,-1,1,0,-2,-2,-1,0
1619049245.317223,-1,1,0,2,-2,-1,1,0
1619049245.3249743,1,-1,0,-1,-1,-2,-3,0
1619049245.3270042,-2,-1,-3,-2,-2,-1,-1,1
1619049245.32948,0,-2,-1,-2,-2,1,-1,-2
1619049245.331328,-2,-2,0,-2,-2,-2,-1,-2
1619049245.3484318,-2,-1,2,0,-1,-1,-1,-2
1619049245.350308,1,1,2,-1,-3,-1,1,1
1619049245.3550816,-1,-1,-2,0,-2,0,2,2
1619049245.3569386,0,0,-2,-2,0,-2,-2,-1
1619049245.3704765,1,0,-1,-1,1,0,2,1
1619049245.3723118,-1,-2,-1,1,-2,-2,-1,-3
1619049245.37492,0,-2,-4,-3,3,2,-2,-2
1619049245.3767006,-3,2,2,1,-2,-2,-1,0
1619049245.3927045,-1,2,3,1,-4,-8,-3,0
1619049245.394665,-2,-3,-3,-2,0,0,-2,-1
1619049245.399634,-1,-2,-2,-2,0,-1,1,0
1619049245.4014955,1,-1,-2,-1,-2,-1,-1,-2
1619049245.4093614,-2,-2,-1,-1,-1,3,1,1
1619049245.4112563,0,-1,-1,0,0,-1,-2,0
1619049245.4136693,-1,0,-1,-2,-1,2,0,0
1619049245.4155061,-1,-2,2,-1,0,0,-3,2
1619049245.430734,-1,-1,-3,-2,0,-1,0,-3
1619049245.432603,-2,0,0,-2,-1,-1,-2,-1
1619049245.435209,0,-1,-2,-2,-1,-3,-2,-2
1619049245.4370286,-1,-3,-5,-4,0,2,1,-2
1619049245.4448874,0,-3,-3,-2,1,1,-1,-1
1619049245.4468007,0,-1,-1,1,-1,-2,-1,-3
1619049245.4493127,-2,-1,1,0,-1,-1,-2,0
1619049245.4511223,-2,0,0,0,-2,-1,0,-1
1619049245.475773,-3,-3,-1,-2,-1,-2,-1,0
1619049245.4776986,-1,-2,-2,-1,-1,0,0,-2
1619049245.4801533,0,1,0,1,-3,-2,-2,1
1619049245.4820926,-1,-1,-1,-1,0,-2,-1,-2
1619049245.4908686,-2,-1,-5,-3,-2,-1,0,-2
1619049245.492696,0,1,2,2,2,-2,0,1
1619049245.4952173,-3,-3,0,0,-1,-1,-3,0
1619049245.4970849,0,0,0,-2,-1,-1,-1,0
1619049245.5048294,1,-1,2,3,2,2,2,1
1619049245.5067244,-1,-1,-2,-2,-1,0,0,1
1619049245.5092695,0,0,-2,-2,-2,-3,-1,-3
1619049245.5113041,0,-3,-2,1,1,0,-2,0
1619049245.5286243,-3,-2,0,-1,0,2,-1,-2
1619049245.530498,-3,0,0,-2,-2,-2,-2,-2
1619049245.5330245,-1,-1,-1,0,-1,-1,-1,-1
1619049245.5349612,0,-1,-2,1,-2,-5,-1,-2
1619049245.55071,-1,-1,-2,-1,-3,-1,-1,-1
1619049245.5527415,-1,-3,-3,-1,-2,0,-2,-1
1619049245.555395,-2,-2,1,-2,-2,-2,-1,-1
1619049245.557388,-1,0,0,0,0,1,0,-3
1619049245.5643768,-1,-1,-2,-2,0,-2,-1,0
1619049245.5663176,-1,0,-1,0,-1,-2,-2,-1
1619049245.5802233,-1,-2,-2,-1,0,0,-1,-1
1619049245.5821059,-1,0,-2,-2,-2,-1,-1,-1
1619049245.5879996,-1,-1,0,-1,-2,-3,-2,-1
1619049245.5898216,-2,0,-3,-4,-1,-2,1,1
1619049245.5923378,-2,-1,-3,-3,-1,1,0,-2
1619049245.5942562,-2,-1,1,0,0,0,-2,-1
1619049245.619523,-1,-2,-2,-2,-3,-2,-1,-2
1619049245.6215417,1,0,-1,0,-2,-2,-1,-1
1619049245.6243243,-1,-2,-3,-1,-1,0,1,-1
1619049245.6263237,-1,-1,-1,-1,0,0,-2,-1
1619049245.629551,0,-3,-3,0,0,-1,0,-1
1619049245.6314204,0,0,2,3,0,0,-1,-2
1619049245.6403337,1,-2,0,-1,1,-1,-1,0
1619049245.6424081,-2,-2,-2,-4,-1,-1,0,0
1619049245.6484795,-1,1,0,-1,3,1,-1,-1
1619049245.6503136,-3,-2,-1,2,0,0,0,-3
1619049245.6529102,-1,1,0,0,-2,-1,-1,-2
1619049245.6547859,0,-1,0,1,0,-1,-1,-1
1619049245.6715293,-2,0,-1,0,-1,-2,0,1
1619049245.6733325,-1,-1,-3,-2,1,-2,-1,-2
1619049245.675862,-2,0,2,0,-3,-1,-1,-2
1619049245.677721,-2,-1,1,-2,-3,-2,1,0
1619049245.6840804,-2,-1,-5,-5,0,6,-1,-1
1619049245.6859803,-2,-2,-2,-1,0,0,-1,-1
1619049245.6923172,-1,0,-2,2,-2,-2,1,-1
1619049245.6941922,-1,-2,-7,-7,0,0,0,-1
1619049245.7169547,-2,-3,2,1,2,0,0,-1
1619049245.7190452,0,-2,-1,-1,-4,-3,-3,-1
1619049245.7217028,-2,0,0,-1,-2,-1,-1,-3
1619049245.7236989,-1,-1,-3,0,0,-4,-2,0
1619049245.7307448,0,1,2,2,-2,-2,-2,-1
1619049245.7325964,-1,-3,0,-1,-1,-1,-1,0
1619049245.7352114,-1,-3,-2,-1,1,0,-3,0
1619049245.7370803,0,-2,-1,0,-1,1,-1,-1
1619049245.7531416,1,1,1,-1,-3,-2,0,1
1619049245.7551842,0,0,2,0,-1,-2,0,-1
1619049245.7577176,-2,-1,-2,0,2,1,2,-1
1619049245.7595806,-2,1,-1,-2,-1,-1,0,0
1619049245.768074,-2,-3,-3,-2,-4,-3,-3,-1
1619049245.7701313,0,-1,-2,0,0,0,-2,-2
1619049245.7726407,0,0,-1,-1,1,-1,-1,0
1619049245.7745383,0,0,1,-1,-1,-3,-1,1
1619049245.7909048,-4,0,0,-1,-1,-1,0,-3
1619049245.7927942,-2,-2,-1,-2,-1,0,0,2
1619049245.7953546,-1,2,1,2,-1,-5,-2,0
1619049245.7972333,-1,-1,4,2,-3,-2,1,-3
1619049245.8209507,0,0,0,2,1,1,-1,-2
1619049245.8230543,-1,-1,-4,-4,0,2,0,0
1619049245.8257737,0,-1,-1,-4,-5,-3,-1,1
1619049245.8277352,1,-1,3,6,-6,2,-1,1
1619049245.8309264,-1,-1,-3,-3,3,-4,0,0
1619049245.8327773,-1,0,-2,0,-2,-3,-2,-1
1619049245.835283,-2,-4,-7,5,-6,-3,-3,-3
1619049245.8370907,-1,-1,6,-1,10,1,-1,-1
1619049245.858121,-3,-6,-12,3,0,-1,-1,-5
1619049245.8601153,2,5,3,-13,-7,1,2,2
1619049245.8648756,7,18,27,-3,8,5,2,3
1619049245.8668792,-1,1,9,27,11,0,0,0
1619049245.8728244,0,-4,-7,2,-12,-6,-3,-2
1619049245.8747303,-2,-6,6,1,0,0,-1,-1
1619049245.8779645,-3,-8,-21,1,14,3,-2,0
1619049245.879882,0,5,13,-18,-26,-5,-1,-1
1619049245.8875701,-1,-2,-6,8,-4,-1,-1,0
1619049245.8893921,-1,-2,-2,18,-3,0,-1,-2
1619049245.9016535,-1,-6,-10,-45,-21,0,-1,-2
1619049245.9036012,-3,-5,-8,12,13,1,-2,-3
1619049245.911097,-2,-6,-9,-5,7,0,0,-2
1619049245.9129553,-1,-1,-4,4,-9,-8,-5,-1
1619049245.9242408,4,2,-4,-24,-3,6,3,2
1619049245.926121,-1,1,1,0,0,-3,-3,0
1619049245.9333353,1,-5,-9,-1,-5,1,2,2
1619049245.9352543,3,11,13,37,25,9,3,1
1619049245.9385207,-2,-11,-8,17,16,4,2,0
1619049245.94037,-2,-3,-1,-34,-9,-10,-3,-2
1619049245.9467645,3,22,37,2,-12,-3,1,0
1619049245.9486716,-6,-6,-11,-3,-12,-2,-1,-4
1619049245.9554284,-6,-9,-21,15,25,8,2,-5
1619049245.9572208,-2,1,-11,-44,-41,-11,-4,-3
1619049245.9706178,-5,-6,-5,23,24,2,0,-3
1619049245.9724984,5,19,65,31,18,3,0,2
1619049245.975675,-6,-6,-26,-11,-13,-2,-1,-1
1619049245.9774785,-2,-7,-2,11,28,9,3,1
1619049245.993668,4,7,6,-38,-30,-3,-1,2
1619049245.9954975,-7,-23,-51,27,30,12,1,-4
1619049246.0008402,1,17,51,-48,-55,-27,-12,-3
1619049246.002755,-2,-5,-15,1,11,3,-1,0
1619049246.0069025,1,2,-2,4,8,3,0,0
1619049246.0087557,4,4,11,-7,18,9,6,3
1619049246.0296624,-5,0,18,55,-5,-13,-8,-5
1619049246.0316715,-2,-6,-17,-9,-34,-3,-3,0
1619049246.0547528,-1,7,15,9,4,-5,-2,2
1619049246.0569336,-3,-15,-50,-56,-24,-10,-4,0
1619049246.060543,5,11,23,19,26,9,3,2
1619049246.062619,2,-5,-17,-26,-15,-3,1,-4
1619049246.0652885,6,6,28,74,11,1,1,0
1619049246.06727,-9,-30,-62,-58,-29,-19,-10,-5
1619049246.0706785,7,15,23,-3,-6,9,6,3
1619049246.0726447,-5,-4,-3,25,12,0,-3,-3
1619049246.075146,-5,-4,-4,-20,17,6,1,-2
1619049246.0769453,-7,-5,20,28,-50,-18,-7,-4
1619049246.092053,-10,-16,-58,-31,56,16,5,2
1619049246.0940166,-1,-4,-33,-63,-20,-4,-1,0
1619049246.0965362,-9,-3,20,66,31,7,-3,-3
1619049246.0984352,4,15,34,-38,-18,-1,4,5
1619049246.1016223,-2,-13,-23,-15,-10,0,1,-2
1619049246.1034727,2,-1,5,60,24,1,-1,-4
1619049246.1137087,-4,-22,-31,-40,-31,-15,-11,-8
1619049246.1155958,11,17,16,-4,17,9,4,6
1619049246.1189435,-6,-7,-9,20,53,4,-1,-3
1619049246.120881,-4,-4,-6,6,0,-3,0,0
1619049246.1267517,0,4,-21,-14,-60,-4,2,2
1619049246.1286027,2,-1,-15,-75,4,-6,-5,-4
1619049246.1434352,7,17,79,101,42,7,-4,-2
1619049246.1452842,2,0,0,-18,-27,4,1,0
1619049246.1505022,-2,-13,-7,-36,31,-4,-3,-4
1619049246.1523514,-1,-3,-12,49,40,12,2,2
1619049246.1555815,-3,-6,-16,-6,-54,-9,-2,0
1619049246.1573882,2,6,-5,-18,14,-2,-2,-1
1619049246.1752734,6,14,12,15,4,2,0,0
1619049246.177338,-9,-2,6,-11,-3,0,-1,-3
1619049246.1809905,1,-1,-17,-28,-14,-7,-4,-1
1619049246.183285,7,21,63,127,-25,-4,-2,1
1619049246.187662,-10,-38,-127,-128,-22,-3,-5,-5
1619049246.1900845,11,30,86,89,47,11,6,5
1619049246.1956465,-14,-34,-99,-70,-22,-5,-2,-3
1619049246.1975565,1,29,96,22,-6,9,6,5
1619049246.2107635,0,10,30,-32,-15,-4,-2,0
1619049246.2129042,-1,-10,-37,-91,-37,-10,-6,-3
1619049246.2168467,3,-8,-35,-10,-18,-15,-8,-2
1619049246.218852,6,3,-12,-13,48,25,8,0
1619049246.2322571,2,9,26,-2,-21,-3,1,3
1619049246.234006,5,21,48,52,-7,1,5,1
1619049246.2408354,-5,-12,-47,-21,-13,-5,-3,-3
1619049246.2429483,-5,-12,-33,-57,56,19,5,1
1619049246.246557,1,3,24,77,-8,-19,-8,-5
1619049246.248281,-8,-26,-89,-4,-56,10,9,0
1619049246.2559354,-4,6,27,0,-92,-41,-24,-9
1619049246.25765,-7,-22,-87,-64,-35,-15,-2,0
1619049246.2708678,2,17,48,93,104,25,2,-1
1619049246.2728796,-7,-18,-48,-56,13,-3,0,1
1619049246.2762892,2,-8,4,33,-12,4,6,1
1619049246.2782013,3,12,18,17,9,2,-1,2
1619049246.2930772,-7,-24,-70,-23,-1,7,4,-2
1619049246.2949457,9,26,78,95,-20,-12,-7,0
1619049246.2980046,5,13,29,7,39,10,4,2
1619049246.2997143,-3,-5,0,-56,4,-15,-13,-8
1619049246.3067856,-9,-24,-62,-20,-20,-4,1,-1
1619049246.3084881,2,19,72,86,12,17,7,-1
1619049246.321759,0,-1,6,-57,-9,-1,2,-2
1619049246.3236427,-2,-8,-32,-32,26,11,7,2
1619049246.3308434,4,6,18,-45,-68,-31,-12,-1
1619049246.332697,-3,-8,-25,-53,1,0,-2,1
1619049246.3359585,14,35,126,117,24,13,7,6
1619049246.33774,6,33,105,111,25,4,2,0
1619049246.3610523,-11,-35,-77,-90,-10,8,-4,-7
1619049246.3629065,5,29,76,49,-29,-20,-8,-1
1619049246.369744,-4,-18,-30,24,35,32,15,2
1619049246.3715985,0,-2,0,42,16,-8,-3,-2
1619049246.374069,4,22,55,19,-6,-6,3,4
1619049246.3757741,-3,-20,-60,-67,16,0,-3,-3
1619049246.3787858,2,22,60,47,19,6,-1,2
1619049246.3804708,-13,-42,-128,-102,-21,-9,-4,-5
1619049246.3916805,13,45,127,118,86,23,10,7
1619049246.3933902,-6,-16,-64,-83,-38,-17,-7,-5
1619049246.4040606,-12,-33,-101,-112,7,-2,-3,-6
1619049246.4057827,4,22,83,66,-5,0,-1,-1
1619049246.4145164,-3,-15,-74,-74,-87,-18,-1,3
1619049246.4162333,-12,-27,-84,-41,46,-1,-10,-9
1619049246.4194362,-2,0,-23,18,-4,-2,2,0
1619049246.421114,-12,-37,-110,-52,-47,-22,-13,-7
1619049246.426605,8,34,94,58,10,4,2,0
1619049246.4283085,-5,-8,7,26,30,9,-1,-1
1619049246.4417884,0,-5,-36,-22,-19,-9,-3,0
1619049246.443651,-5,-10,-32,-42,-32,-4,2,0
1619049246.4504845,-2,0,4,-6,3,6,-2,-4
1619049246.452456,-1,-3,3,-26,-11,-12,-4,-2
1619049246.455736,10,22,80,46,16,10,5,3
1619049246.4575922,-5,-6,-3,-40,-1,-3,-6,-3
1619049246.4734602,-1,-11,-37,1,9,-1,-1,1
1619049246.4753191,1,7,16,36,-16,1,3,1
1619049246.4785988,-9,-23,-97,-95,4,4,1,-3
1619049246.4803956,7,35,100,88,-62,-26,-13,-5
1619049246.503419,8,19,50,81,36,3,-1,1
1619049246.5054262,-8,-22,-67,-89,-23,2,0,-3
1619049246.508868,1,8,25,72,40,5,0,-1
1619049246.5107684,3,-2,-22,-19,14,6,6,4
1619049246.5180423,-7,-11,-40,-10,18,0,0,0
1619049246.5200076,4,15,34,19,-22,0,0,2
1619049246.5232692,-4,-21,-46,37,0,0,3,-2
1619049246.5251305,6,25,96,90,35,4,0,4
1619049246.5406766,-2,-18,-75,-60,17,7,3,0
1619049246.5425465,-8,-9,9,19,43,15,4,-5
1619049246.5457678,21,54,89,66,40,12,7,9
1619049246.5476253,-7,-20,-73,-94,-40,-9,-1,-4
1619049246.555318,0,-6,-19,7,-22,-5,-1,-1
1619049246.5571835,-5,-8,-37,-15,-19,4,-1,-1
1619049246.5604274,-9,-15,-23,-44,-30,-17,-10,-4
1619049246.5624125,5,12,46,-3,-39,-13,-5,2
1619049246.569498,-6,-9,-36,-42,19,5,0,-1
1619049246.571367,6,14,47,51,-7,5,8,3
1619049246.6029952,-8,-17,-37,-78,-59,-42,-19,-7
1619049246.6049192,10,27,47,91,66,21,6,6
1619049246.607601,-13,-33,-98,-128,-55,-20,-7,-8
1619049246.6094155,0,5,25,69,2,-1,3,3
1619049246.6125636,-7,1,14,-39,-6,9,0,-4
1619049246.6144447,3,5,25,43,26,8,3,1
1619049246.6169353,-2,-2,-10,30,11,13,3,0
1619049246.618779,1,12,23,18,24,-6,-8,-4
1619049246.6221764,-4,-11,-2,16,11,5,2,-1
1619049246.6240559,-6,-21,-46,-27,-16,1,5,-2
1619049246.6383705,3,6,34,15,18,14,0,-3
1619049246.640286,-4,-19,-79,-76,-74,-25,-6,0
1619049246.6552854,9,30,82,68,26,15,6,7
1619049246.657156,-4,-6,-26,-61,-24,-7,-3,-3
1619049246.6597023,-8,-17,-44,-3,3,-2,-2,-3
1619049246.6614842,12,30,66,38,29,17,7,4
1619049246.6647308,2,1,-3,0,-57,-34,-14,-3
1619049246.6665826,-2,-13,-45,-19,21,9,3,1
1619049246.6690156,1,15,48,6,-19,-6,0,1
1619049246.6709416,-4,-21,-58,-33,40,6,-4,-7
1619049246.6914706,-2,-1,-1,-37,-34,-2,1,0
1619049246.6933224,-12,-38,-54,-13,40,13,1,-5
1619049246.6958888,4,23,18,-17,-20,0,4,3
1619049246.6976366,-3,-3,-26,-9,-10,-8,-3,-1
1619049246.7008595,-5,-5,-10,-34,-5,16,1,-7
1619049246.702805,0,-14,-31,-39,-40,-18,-6,1
1619049246.7133899,0,-1,17,11,6,4,2,0
1619049246.715276,1,11,40,4,-3,-7,-2,-3
1619049246.72106,-10,-21,-42,-17,0,-10,-8,-9
1619049246.7229593,5,18,46,11,9,15,5,5
1619049246.7268038,-3,-7,-17,17,-3,-17,-9,-4
1619049246.7286527,13,36,92,20,-13,2,6,7
1619049246.7356644,-8,-16,-32,13,-1,-5,0,-2
1619049246.737548,11,21,62,34,-23,-5,-2,2
1619049246.7507162,4,10,34,66,38,6,0,1
1619049246.7525728,-13,-27,-83,-1,21,5,-2,-6
1619049246.7557943,2,2,4,-34,-6,-5,0,0
1619049246.757617,-3,3,-1,-27,4,0,-2,-5
1619049246.7729807,1,1,11,30,-24,-1,0,-3
1619049246.7748969,-7,-22,-48,-24,9,-1,-4,-3
1619049246.7781565,1,8,21,31,37,7,1,2
1619049246.780012,2,8,25,29,-12,-4,3,2
1619049246.7873607,-12,-31,-86,-128,-55,-8,-8,-8
1619049246.789235,12,29,81,79,-2,-5,0,6
1619049246.8033905,3,8,11,66,23,4,-1,0
1619049246.8053496,-5,-10,-31,-32,5,0,-1,-2
1619049246.810769,-2,-7,-14,-16,22,1,-1,-2
1619049246.8126628,-5,-12,-38,-24,10,6,-2,0
1619049246.8158755,-2,1,-1,1,-18,-8,-1,0
1619049246.8176553,-1,-6,-31,5,-1,-5,-2,-1
1619049246.8335173,4,8,12,14,-1,1,6,4
1619049246.8355374,-9,-27,-78,-52,-10,-14,-11,-7
1619049246.8388543,6,13,41,-3,-32,-6,-1,2
1619049246.8407161,-9,-13,-37,1,-5,-11,-7,-6
1619049246.8567076,-7,-19,-61,-50,-40,-7,0,-3
1619049246.858621,9,19,55,-12,15,12,8,6
1619049246.8617928,-3,-11,-52,-48,-36,-9,-2,0
1619049246.8635948,2,11,48,33,-3,-2,0,0
1619049246.871435,2,7,14,5,27,7,1,-1
1619049246.873271,0,-1,10,44,6,0,2,0
1619049246.8843336,2,0,4,-11,1,1,-1,1
1619049246.8863194,-1,3,6,-37,-15,1,-1,-3
1619049246.8929794,2,14,70,110,36,1,-1,0
1619049246.894851,-9,-15,-46,-48,-12,-3,-3,-5
1619049246.898056,2,-2,4,-51,-10,-4,-1,1
1619049246.89993,2,4,7,8,-4,-3,1,2
1619049246.9235518,-6,-8,9,59,20,2,-7,-4
1619049246.9255543,-2,-11,-73,-77,-27,3,2,-2
1619049246.9290109,1,23,61,35,25,6,-1,-4
1619049246.9309797,-5,-13,-45,-41,1,1,-2,-3
1619049246.9336088,0,-7,-16,-59,-35,-7,0,2
1619049246.935523,0,8,44,43,5,-5,-1,1
1619049246.9388177,-10,-31,-95,-42,8,5,0,-7
1619049246.940602,-4,-3,-10,-14,-19,-5,-2,-3
1619049246.9531796,4,5,2,1,32,4,-1,2
1619049246.9552178,-1,-5,-3,15,-15,-13,-4,-2
1619049246.95862,-3,-6,-28,5,19,2,-3,0
1619049246.9605913,2,2,12,37,30,9,4,3
1619049246.975908,1,2,-5,-17,-3,-5,-1,0
1619049246.9778936,2,-1,-7,-23,-5,-2,-3,1
1619049246.9813192,-5,-15,-74,-7,35,9,0,-3
1619049246.9831944,-2,4,-7,64,25,6,1,-1
1619049246.9907439,2,10,-4,-14,-16,0,1,2
1619049246.9926085,-6,-11,-8,24,19,3,-1,-1
1619049246.9958797,0,-4,-8,-17,-26,-12,1,0
1619049246.9977388,-6,-21,-52,-19,13,5,-5,-7
1619049247.028494,3,13,51,26,-4,1,0,0
1619049247.0304937,-4,-1,6,21,-2,-3,-1,0
1619049247.033981,2,2,6,31,17,6,-1,2
1619049247.0358293,2,3,2,-27,-28,-8,-2,-2
1619049247.0519786,0,5,12,-5,-50,-17,-5,-2
1619049247.0540488,0,15,56,83,34,10,2,-3
1619049247.0575204,-2,-9,-32,-78,-25,-2,-1,0
1619049247.0593758,-2,6,42,40,-7,7,-1,-1
1619049247.0619237,3,8,24,60,44,11,1,2
1619049247.063797,-6,-8,-16,-26,-26,-13,-5,-4
1619049247.0670319,3,1,9,10,-41,-9,0,2
1619049247.0688336,-8,-22,-63,-11,28,7,-1,-5
1619049247.0728111,4,6,4,-28,-47,-7,1,1
1619049247.0746949,-3,-6,-13,-34,-13,-8,-5,-3
1619049247.0779023,0,0,3,42,-7,-1,2,0
1619049247.0797591,7,11,34,-16,1,-16,-6,-2
1619049247.0957732,0,8,44,67,26,10,4,2
1619049247.097645,-1,-8,-36,-66,2,1,-2,0
1619049247.1008413,0,6,19,2,-39,-6,1,-1
1619049247.1027992,-4,-5,2,6,33,5,-2,-1
1619049247.1101453,-7,-17,-57,-51,0,3,-2,-4
1619049247.1120315,9,23,37,-32,-35,0,7,4
1619049247.11645,-4,-2,17,19,12,-6,-7,-4
1619049247.1183376,-4,-16,-78,-37,-14,-4,-3,-1
1619049247.1330426,4,22,67,55,-30,-8,-3,1
1619049247.1349177,-3,-11,-31,-3,-14,0,1,0
1619049247.1568007,2,6,15,48,36,5,0,-1
1619049247.1587908,2,11,31,-33,-30,-1,2,3
1619049247.16325,-3,-4,8,-3,10,-1,-1,-1
1619049247.1652997,2,6,9,8,21,6,4,2
1619049247.1685758,-9,-23,-59,-81,-31,-10,-6,-8
1619049247.1704304,4,8,41,96,18,-2,-1,2
1619049247.17278,-6,-19,-53,-91,-4,0,1,0
1619049247.1746273,0,3,18,37,39,-1,-7,-4
1619049247.193897,10,27,77,38,3,5,4,5
1619049247.1958108,-10,-20,-57,-67,-30,-3,-3,-2
1619049247.1983507,-5,2,1,19,45,16,2,-5
1619049247.2001867,-10,-21,-66,-24,9,3,-1,-4
1619049247.2035797,5,15,40,-12,-6,-1,0,3
1619049247.2054925,3,0,-5,-19,15,5,2,2
1619049247.2236483,-3,-3,8,52,17,7,2,0
1619049247.2254777,-3,-15,-54,0,-17,-17,-7,-3
1619049247.2307856,-1,-2,-25,-1,8,3,1,1
1619049247.2326877,0,4,4,20,-5,2,4,-1
1619049247.2352843,-2,-12,-35,-57,-29,-16,-7,-4
1619049247.237178,5,17,59,65,21,1,0,0
1619049247.2404418,3,-8,-14,12,9,2,-3,1
1619049247.2423286,-6,-1,-3,9,32,8,1,-4
1619049247.2530773,-8,-20,-69,-48,-8,-9,-3,-3
1619049247.254984,1,3,9,7,-25,-1,1,-2
1619049247.2581992,-7,-14,-27,-54,0,-1,-4,-6
1619049247.2600334,-2,-15,-56,3,-14,-7,0,-3
1619049247.2763531,9,21,67,33,-1,0,0,2
1619049247.2784445,-6,-7,-13,-40,-6,-2,-2,-2
1619049247.281622,-6,-5,-7,7,7,6,5,-1
1619049247.2834475,-12,-30,-83,-84,-21,-5,-6,-8
1619049247.2896743,14,38,97,69,-6,-3,3,8
1619049247.2915673,-3,-5,3,-18,-11,-7,-7,-3
1619049247.2968352,-4,-2,-2,16,-1,-2,0,-1
1619049247.2987936,2,-3,-11,-18,15,2,2,-1
1619049247.313218,-1,-13,-40,-22,-12,-2,-2,-1
1619049247.315298,2,16,38,15,13,-7,0,3
1619049247.3185484,2,-5,-31,-79,-53,-7,0,2
1619049247.3204994,3,15,86,103,29,-1,-3,3
1619049247.3357701,-2,-11,-46,-28,4,-4,-5,-6
1619049247.337637,-2,-17,-62,-37,-1,1,1,0
1619049247.343189,-7,-13,-26,-2,38,11,1,-5
1619049247.3450727,8,30,65,25,-3,2,5,4
1619049247.349025,-1,-9,-37,-46,-5,-7,-2,-2
1619049247.3508716,7,24,80,61,10,14,7,5
1619049247.3582184,2,2,19,35,-28,-19,-8,0
1619049247.3600755,1,5,3,-2,-17,-10,-1,3
1619049247.3729906,-3,-3,-14,17,7,5,1,-1
1619049247.3748777,2,3,4,18,-7,0,1,-1
1619049247.37812,-2,-4,-24,-33,6,0,1,0
1619049247.3800075,4,9,31,-2,-10,1,-3,-1
1619049247.3958488,-3,-3,-6,-4,-13,-8,-6,-3
1619049247.3978593,10,22,54,46,39,13,6,7
1619049247.4011416,-2,-1,-4,-8,18,5,-1,-2
1619049247.4030821,-4,-9,-28,-19,-15,-8,-3,-1
1619049247.4187083,-2,-6,-29,-25,0,14,9,0
1619049247.420794,-3,-7,-23,-47,7,1,-6,-5
1619049247.4341652,3,10,46,32,2,-3,-2,0
1619049247.4361687,-1,3,-3,33,20,8,2,-2
1619049247.4389818,-6,-26,-70,-72,-6,-11,-8,-3
1619049247.4408443,-4,-19,-55,-36,0,-1,0,0
1619049247.444082,6,25,78,99,24,4,0,-1
1619049247.446048,-9,-20,-59,-64,-18,-3,-1,-2
1619049247.456222,-1,5,17,46,17,-1,0,-1
1619049247.4581583,-13,-31,-62,-31,-19,-12,-8,-7
1619049247.4613733,7,14,34,21,25,12,7,4
1619049247.463268,-1,-3,1,10,-12,-6,-4,-2
1619049247.469104,0,6,20,24,24,0,0,0
1619049247.4710817,-3,-4,-13,-20,-15,-8,-4,-3
1619049247.4782536,-1,-8,-11,-6,0,-6,-3,-6
1619049247.4801595,0,5,19,-1,34,10,4,0
1619049247.4932158,6,20,72,61,-29,-1,1,2
1619049247.495122,-1,-6,-22,10,13,6,-1,-4
1619049247.4982963,5,17,44,28,3,1,3,3
1619049247.5001652,1,-2,-7,45,7,-9,-5,-2
1619049247.5234778,-5,-11,-36,-19,14,1,-2,-5
1619049247.5255759,1,8,19,11,15,5,2,1
1619049247.5291412,-9,-25,-81,-49,-10,-5,-3,-1
1619049247.531039,8,28,88,65,-1,6,5,8
1619049247.5334892,1,-2,-13,-3,15,3,-1,3
1619049247.5353346,1,9,45,50,-4,-1,-2,-1
1619049247.538535,-5,-20,-65,-43,10,-2,-3,-4
1619049247.5403025,-1,6,11,-8,-4,-3,-1,-1
1619049247.559773,-7,-12,-27,-28,-2,0,-3,-3
1619049247.5616913,1,13,37,7,-18,-18,-6,-3
1619049247.5691087,2,10,20,4,-29,-7,0,2
1619049247.5710742,-2,-16,-46,-29,-14,-4,-5,-6
1619049247.5756738,4,8,16,14,-16,-4,-1,0
1619049247.5775647,-6,-21,-62,-70,-8,-7,2,3
1619049247.5809507,0,2,5,17,0,5,1,-3
1619049247.5828006,1,-1,4,18,-11,0,-1,-1
1619049247.589188,-5,-17,-38,-8,29,13,3,-2
1619049247.5912454,7,19,60,36,-20,-8,-2,3
1619049247.5983424,-4,-2,-10,-10,13,1,-1,-1
1619049247.6001856,-2,-7,-32,-56,2,2,0,-2
1619049247.6145544,0,-7,-1,6,-29,0,4,0
1619049247.6164067,6,21,61,37,24,8,1,0
1619049247.6196556,1,4,8,-25,-11,-3,-2,3
1619049247.6214688,-2,-3,-4,-8,-13,5,3,-3
1619049247.6362064,-3,3,11,14,5,-8,-3,1
1619049247.6380744,-3,-10,-34,-27,-16,-3,0,-1
1619049247.64139,-5,-13,-33,-26,-8,-6,0,-1
1619049247.6432652,-4,-6,-37,-67,-48,-17,-7,-2
1619049247.649173,11,34,99,26,-3,-2,1,4
1619049247.6510968,-4,-18,-37,6,1,5,-2,-5
1619049247.6581814,3,8,27,27,-5,-2,-3,-1
1619049247.6600268,-9,-28,-95,-71,-2,1,2,-3
1619049247.67302,12,38,65,91,39,9,5,2
1619049247.6751103,1,-3,-24,-25,-9,-2,0,3
1619049247.6784012,-2,-3,-20,-17,0,1,0,0
1619049247.6802337,1,3,23,19,40,1,-2,1
1619049247.696814,-4,-14,-24,-55,-18,-5,-4,-3
1619049247.6987228,-3,-4,-16,-4,2,-4,-4,-3
1619049247.7188194,0,0,5,35,42,17,5,-1
1619049247.7208288,3,8,35,8,10,3,2,1
1619049247.7234333,-3,-9,-21,-32,-12,-1,-4,-4
1619049247.7254343,1,5,13,34,12,6,3,0
1619049247.728745,-4,-8,-20,-36,-17,-9,-5,-2
1619049247.7305825,2,-2,2,22,-2,-2,-3,0
1619049247.7407248,-2,-4,-1,-13,-5,0,-1,-1
1619049247.7427385,-6,-10,-24,-25,-12,-2,0,-2
1619049247.7461162,2,7,25,42,7,2,1,0
1619049247.7479496,3,4,3,0,-7,-1,1,1
1619049247.7564816,-6,-6,-13,0,-3,-5,-2,0
1619049247.7584252,-1,-1,-3,12,-5,0,-2,-1
1619049247.7616982,0,3,5,-9,1,-2,-2,-1
1619049247.7635636,1,4,16,10,3,-2,-1,-1
1619049247.7779806,-1,-7,-21,-21,-7,-4,-3,-1
1619049247.7799346,0,-2,-6,4,3,1,-1,-1
1619049247.7832189,-1,-1,13,8,-16,-1,-3,-1
1619049247.7849958,-2,-6,-24,-8,-10,-5,-3,-1
1619049247.8006704,-2,0,-9,18,15,4,3,-1
1619049247.8025956,0,2,15,-1,6,-2,-1,-2
1619049247.8057733,1,3,6,14,2,-3,0,-1
1619049247.8077588,1,2,12,3,-2,-1,-3,-1
1619049247.8158982,-1,-3,-5,3,-9,-4,-3,-1
1619049247.8177438,-1,-1,-7,1,6,5,0,0
1619049247.8209822,-2,-7,-13,-14,-6,-3,-2,-3
1619049247.822794,1,5,13,-1,-5,-3,-1,-1
1619049247.838954,1,-3,-10,-5,-3,-4,-3,0
1619049247.8408968,0,0,8,16,-2,0,1,2
1619049247.8442595,2,0,-9,-10,-8,-14,-4,0
1619049247.8461375,1,7,21,16,-4,0,2,2
1619049247.8529859,-1,-5,-14,-24,-1,-1,-3,-2
1619049247.8548963,-3,3,11,-3,-6,-5,-1,0
1619049247.858175,-2,-4,-4,2,1,2,2,-2
1619049247.8600364,0,2,6,14,2,1,0,-2
1619049247.8841035,-1,-5,-11,-18,-4,-2,-1,-1
1619049247.8859909,1,0,-2,-6,-2,0,-1,0
1619049247.8892329,-1,-1,-18,-9,1,-1,-3,-2
1619049247.8911867,4,9,33,10,-2,0,-1,-1
1619049247.8982449,3,-1,3,-2,-2,1,-1,1
1619049247.899969,-1,-4,-6,-13,-5,-4,-2,-2
1619049247.9030654,-4,-9,-5,2,2,2,-2,-2
1619049247.9047465,-3,-8,-14,-14,-2,-3,-1,-2
1619049247.9128945,-6,-9,-20,-5,-2,1,1,-1
1619049247.9146235,2,5,-2,-7,0,2,2,3
1619049247.9176948,-1,0,9,11,3,1,-1,2
1619049247.919409,-4,-8,-9,-5,-5,-2,-2,-2
1619049247.9364848,-5,-4,5,6,-2,-3,-1,-1
1619049247.9382105,-3,-10,-18,-21,-2,-2,-1,-3
1619049247.9414008,-3,-2,-7,-6,0,1,0,-2
1619049247.9431186,1,4,3,5,2,2,-2,2
1619049247.9598434,1,0,-3,-2,-5,-3,-4,-2
1619049247.9617467,3,1,1,-4,0,1,-1,-3
1619049247.9651484,1,0,3,2,1,0,2,1
1619049247.9674916,-5,-3,-4,0,1,-2,-1,0
1619049247.972974,1,1,1,-5,-2,2,-2,-4
1619049247.9757252,0,2,5,7,-1,-7,-2,1
1619049247.9884129,0,2,1,1,-4,-2,-3,-1
1619049247.9909637,-1,0,-11,-7,0,-1,-1,-1
1619049247.9958503,0,0,-2,0,-2,-1,0,0
1619049247.9981081,-1,-1,3,1,0,1,1,-1
1619049248.001554,0,-3,-11,-5,-1,1,-1,-1
1619049248.003492,2,1,3,0,0,-2,1,-1
1619049248.03417,-3,-1,0,3,0,0,-2,1
1619049248.0363574,-2,-2,7,5,1,0,0,-2
1619049248.0407488,-3,-5,-7,-4,-2,-2,-3,-2
1619049248.0427842,0,-3,0,-4,-2,-5,-2,-2
1619049248.045427,-2,-6,2,4,-4,-1,0,0
1619049248.0473065,-1,-3,-6,-6,-2,-3,-2,0
1619049248.0505319,2,2,0,4,-1,-7,-1,1
1619049248.0523942,-2,0,0,-3,0,3,-1,-2
1619049248.0621355,2,7,7,2,-2,-2,-2,2
1619049248.0640533,-2,-1,0,1,-3,0,-2,-1
1619049248.0865629,-2,-1,0,-4,-1,3,1,-1
1619049248.0884855,-1,-1,-1,4,0,-3,-1,-2
1619049248.0916388,-2,-2,2,-3,-1,-3,-3,-1
1619049248.0934303,2,1,0,0,-1,1,0,1
1619049248.096629,-1,-3,-1,-1,-3,0,-2,0
1619049248.0984998,-3,-4,-7,-5,-3,2,0,0
1619049248.1011782,1,0,-1,-2,-2,-3,2,-1
1619049248.1030548,0,-3,-4,1,-4,-5,-1,0
1619049248.1061695,-2,1,3,-1,-2,-1,-2,0
1619049248.1084828,-2,0,-1,1,-1,-1,-2,-2
1619049248.11485,-1,-1,-2,-3,-2,-1,1,-1
1619049248.116713,-3,-3,-2,-3,0,1,0,0
1619049248.1292062,3,1,3,1,-1,-4,1,0
1619049248.131179,-1,-1,-2,2,0,1,-1,-1
1619049248.138216,-3,-4,-3,-1,0,-1,-2,0
1619049248.140262,-1,-1,0,-2,-1,2,-1,-2
1619049248.1437635,-1,-3,-1,-1,0,-1,1,-1
1619049248.1455781,0,-5,-4,-4,-2,-1,-1,0
1619049248.151956,0,0,-3,-1,-3,0,-3,-1
1619049248.1538265,-2,-2,-4,-1,-1,1,0,-1
1619049248.1756449,-1,-2,-1,-1,-2,1,-1,-1
1619049248.1775534,-3,-3,-1,-1,-1,-1,0,-3
1619049248.180105,-1,-4,-5,-4,0,0,-1,-4
1619049248.1819923,-2,0,-2,-3,0,-1,-1,-1
1619049248.1851978,-4,0,-1,-2,-1,-1,-1,0
1619049248.1875792,2,0,-1,0,0,2,0,0
1619049248.2057667,0,0,0,0,0,2,0,0
1619049248.2078185,-1,1,-2,1,-2,-3,-1,-2
1619049248.2113106,-1,-1,-2,-1,-1,1,0,-1
1619049248.2132852,0,-1,-1,-1,0,-1,-1,0
1619049248.2211938,-3,0,-2,-2,0,-2,0,-3
1619049248.2231748,0,-2,-2,-3,1,-1,0,1
1619049248.2264917,-4,-2,-4,-4,0,-1,-2,-3
1619049248.2283332,-1,1,-2,1,0,-2,0,-1
1619049248.2355797,-1,-2,-1,2,1,1,-1,-3
1619049248.237663,-3,-2,-3,-2,-4,4,-1,-1
1619049248.2409317,0,0,0,0,0,4,0,-2
1619049248.242785,0,0,3,1,-4,-2,-1,-1
1619049248.265901,-1,-2,-3,-4,1,0,-1,-2
1619049248.267942,0,-1,-2,-1,0,-1,0,0
1619049248.272045,-1,-3,0,-3,1,-1,0,1
1619049248.2740583,-2,-1,-2,-1,-2,-2,-1,-2
1619049248.2767076,-1,0,1,-1,0,0,1,0
1619049248.2786808,-2,0,1,0,1,0,0,0
1619049248.281875,-3,-1,-3,-2,0,1,-1,-1
1619049248.283783,0,-1,-1,0,0,2,-2,-2
1619049248.2959216,0,-2,1,-1,-4,-2,-2,-1
1619049248.297801,1,-1,0,-1,-1,-2,0,1
1619049248.3010666,1,0,-2,-1,-2,0,-2,0
1619049248.3030252,-2,-1,-2,-3,-1,1,0,0
1619049248.3185766,1,-1,-1,0,-2,-3,-2,0
1619049248.321269,-3,-1,0,0,0,0,-1,-2
1619049248.3248458,0,0,0,2,-1,-2,-1,-2
1619049248.3267128,0,0,-4,-4,0,-4,-2,-1
1619049248.3316538,-2,1,-1,-1,-1,-1,0,1
1619049248.3335528,-2,-2,1,0,0,0,-1,0
1619049248.357814,0,0,-2,0,-1,-2,-1,-1
1619049248.3598068,0,0,0,0,-2,-3,-1,-2
1619049248.3623683,-1,-3,-1,-1,1,-2,-1,-3
1619049248.3641949,-1,0,-2,-2,-1,-2,-3,0
1619049248.3674242,-2,1,1,1,-1,-1,-1,-3
1619049248.3692153,-2,-2,-1,0,-2,-1,-1,-1
1619049248.3783817,-1,-2,-1,-4,-2,-2,0,-1
1619049248.380292,0,-2,-1,-1,-1,0,1,0
1619049248.3835616,2,0,1,-2,-1,-1,0,1
1619049248.3853877,-1,1,3,2,1,0,0,1
1619049248.4012055,-1,-2,-2,1,-2,-1,-1,0
1619049248.4033587,-1,-1,-2,-1,-4,0,1,-1
1619049248.4068322,-1,0,-2,-1,-1,-2,-1,2
1619049248.408676,0,-1,0,-1,-1,-1,-2,-2
1619049248.4157412,-2,2,-2,0,-1,-1,-2,0
1619049248.4176147,-1,0,0,0,0,-2,-1,-2
1619049248.4213686,-1,-2,-3,-1,-4,-2,1,-2
1619049248.4233046,-2,0,-2,-4,-1,1,0,1
1619049248.438769,-1,0,0,1,-1,0,0,-1
1619049248.4406617,-1,-1,-1,-3,-1,2,-1,-2
1619049248.4438934,-4,-1,0,-2,-1,-2,-2,-1
1619049248.4457233,-1,-2,-1,-3,-1,1,0,0
1619049248.451954,-1,-1,0,-2,2,-1,0,0
1619049248.4544141,-1,-1,0,0,1,1,1,-1
1619049248.4604414,1,-2,-1,0,-1,-3,-2,-2
1619049248.4624398,-3,-1,0,2,-2,-3,-1,-2
1619049248.4840808,0,0,-3,0,-1,-2,0,-1
1619049248.4863732,0,1,-1,2,-2,-4,-3,-1
1619049248.4901006,-1,-1,0,0,2,-1,-2,0
1619049248.4919362,1,-2,-1,-3,-1,1,-1,-2
1619049248.4987288,-1,-1,-2,-2,-2,-2,-2,-2
1619049248.5006964,-1,1,3,1,-1,-3,-1,2
1619049248.5046296,-3,-1,-3,-4,0,0,0,-2
1619049248.5066159,-1,-2,0,0,0,-3,1,-2
1619049248.528703,-1,-3,-1,-2,0,1,-2,-1
1619049248.5306473,-1,-3,-3,-5,2,0,-2,-4
1619049248.5338829,-1,0,1,1,-4,-5,-3,-2
1619049248.5357647,-3,1,-1,-1,-1,0,1,-1
1619049248.5432599,-2,-1,-1,-1,-1,-2,0,0
1619049248.5451977,-1,-1,-2,-2,-3,-4,-2,-1
1619049248.5484061,-1,-1,-1,0,2,1,0,-1
1619049248.5502913,0,-1,-2,-1,0,-3,-1,-1
1619049248.5579329,0,2,0,1,-3,-1,-1,-2
1619049248.5598192,0,-1,-1,0,-1,0,-2,-1
1619049248.5630207,0,0,-1,-1,-2,1,-2,0
1619049248.564874,-1,-1,0,-1,0,1,-1,-2
1619049248.5721526,-1,-3,-1,-1,0,-1,2,-1
1619049248.5740337,0,-3,-3,0,-1,-1,1,0
1619049248.5893188,-3,-1,1,2,-1,-1,0,-1
1619049248.5912333,0,-1,-1,0,0,-2,-3,0
1619049248.5960286,1,-1,-2,-1,0,0,-1,-2
1619049248.5978718,-2,1,-1,-1,0,-2,0,0
1619049248.6011584,-2,-1,-2,-1,-2,-2,0,0
1619049248.603064,-2,-2,-1,1,-1,-2,-2,-1
1619049248.6187096,-2,-2,-2,-2,3,2,1,0
1619049248.6210427,1,2,1,0,-3,-4,-2,0
1619049248.6326027,-1,-3,-3,-2,-1,0,-2,0
1619049248.634561,1,0,-2,-1,-2,-1,1,0
1619049248.6374476,-1,-2,1,1,-1,-2,-1,-1
1619049248.639404,-2,-1,-2,0,0,0,-1,-3
1619049248.6426024,-1,0,0,1,0,-3,-2,-2
1619049248.6443923,0,-2,-3,-2,0,-2,-1,-1
1619049248.6633399,-2,-1,-2,-2,-1,-1,-1,1
1619049248.665352,0,-1,-3,-1,-2,0,0,-1
1619049248.6686897,-1,0,2,1,-2,0,0,-2
1619049248.6713336,-2,-3,-1,0,-1,2,-2,-2
1619049248.6783483,0,2,0,-1,-1,-1,-3,-4
1619049248.6801727,0,-1,-2,-2,-1,-1,-2,1
1619049248.6834896,0,-4,-3,-3,2,2,1,0
1619049248.6853275,-2,-1,-2,-1,-1,-1,0,0
1619049248.6915314,-1,1,0,1,-2,-1,-1,-1
1619049248.6934016,0,0,2,-1,0,0,-2,-1
1619049248.70105,0,0,-3,0,0,-1,-1,-1
1619049248.7029285,0,0,-1,-1,-1,-1,-2,0
1619049248.722961,-1,-1,0,0,0,-1,-1,-1
1619049248.7254043,-2,-1,1,-1,1,1,-2,-1
1619049248.738913,-1,-1,-3,-4,0,0,0,-1
1619049248.7414014,-1,0,-2,-4,0,0,-2,0
1619049248.7440963,-1,-1,0,-2,0,2,1,-1
1619049248.746,0,-2,1,1,-1,-1,0,-1
1619049248.7492425,2,2,1,1,-4,-3,-1,2
1619049248.751111,-1,1,-2,0,0,-4,-1,-1
1619049248.7603936,-3,-2,-3,1,-1,0,-1,0
1619049248.7623422,0,0,-2,0,0,-1,-1,-1
1619049248.7655773,0,-2,0,2,0,0,-1,-1
1619049248.7674394,-1,-1,0,1,0,-2,-1,-1
1619049248.776624,0,-2,-2,-2,-5,-4,0,1
1619049248.778576,-2,-2,0,1,-1,-1,-1,-2
1619049248.7817852,0,-1,-1,-1,1,1,1,-2
1619049248.7835994,0,-2,1,1,-1,0,0,0
1619049248.7972293,0,-1,-3,-1,1,-3,-1,-1
1619049248.7992084,-1,1,-3,-4,-1,-1,1,2
1619049248.8055356,-1,-1,2,0,-1,-1,0,-1
1619049248.8080862,-2,-1,-1,0,-1,0,-1,0
1619049248.8281357,1,-1,2,1,-2,-2,-1,-1
1619049248.8300815,0,-1,0,-1,-1,0,1,-1
1619049248.8332064,-1,0,-1,-2,-1,-2,0,-2
1619049248.8349037,-1,-4,-2,-2,-1,1,-1,-2
1619049248.8372073,0,-1,-2,-1,-1,-1,-1,-2
1619049248.8389077,-4,-2,-2,-2,-1,-1,0,-2
1619049248.842209,-2,0,-2,0,-2,-1,-1,1
1619049248.8439205,-1,1,0,-1,-1,-1,0,-2
1619049248.865619,0,-2,0,0,-1,-1,-1,0
1619049248.8673775,0,0,-1,1,1,0,0,-1
1619049248.8704572,-2,0,0,0,-3,-2,-4,0
1619049248.8721495,0,-1,-3,-2,1,-2,0,2
1619049248.8806388,-2,-2,-1,-1,-1,0,-1,-1
1619049248.8824437,-2,-3,-4,-2,-3,-1,-1,-2
1619049248.8855283,-4,-3,0,-1,-2,1,-2,-2
1619049248.8872566,-1,0,-1,0,1,1,-1,-2
1619049248.895404,0,-1,1,-2,1,2,0,1
1619049248.8971264,-1,-1,0,0,-1,-6,-2,0
1619049248.9091518,0,0,0,-1,1,1,0,1
1619049248.910903,-1,0,-1,-2,-2,0,0,0
1619049248.918189,-4,-1,-4,-3,-1,0,0,-2
1619049248.9199016,-3,-3,-3,-2,1,5,1,-2
1619049248.9229825,1,-1,-3,-3,1,-2,-2,-3
1619049248.9248297,-2,1,-1,-1,0,-1,-1,-2
1619049248.9570303,-1,-2,-1,0,-3,-2,-1,-1
1619049248.9593678,1,-1,-1,0,-2,0,0,-1
1619049248.9627252,0,-2,-2,-1,-2,-2,0,1
1619049248.9644263,-1,0,0,1,-3,-1,0,-2
1619049248.966799,0,-1,-1,-1,-1,-2,-2,-1
1619049248.968537,-1,1,0,-1,-3,-3,-2,0
1619049248.971745,-2,0,-2,0,-2,-4,-1,-1
1619049248.9734788,0,-4,-1,-1,-1,-3,-3,-3
1619049248.978621,-2,0,-1,-1,0,-1,-1,1
1619049248.9803257,0,0,1,0,-2,-4,-2,-1
1619049248.983386,0,0,-1,1,0,1,0,-2
1619049248.9850783,-1,-3,0,-1,-2,-1,-1,-2
1619049249.0081124,1,0,-5,-4,-2,-1,-3,-2
1619049249.0100734,0,-1,0,1,0,-1,-4,0
1619049249.015699,-2,-1,0,-3,-1,1,-1,-2
1619049249.017412,0,0,0,-3,-1,-2,0,-1
1619049249.0198007,0,-1,0,1,-1,-1,0,-1
1619049249.0215294,-1,-3,-1,2,-1,-4,0,-1
1619049249.0247765,-1,-2,-1,-1,-2,-3,-2,-2
1619049249.0264747,-3,-12,-28,-12,-4,-3,-3,-3
1619049249.0380783,3,9,28,9,2,0,0,-1
1619049249.0398366,0,3,3,3,-1,1,0,0
1619049249.0430996,1,-3,-2,-2,-1,-1,1,-2
1619049249.044788,0,0,0,0,-1,-1,-1,-1
1619049249.0604749,-4,-10,-20,-8,-3,-2,-2,-3
1619049249.062336,0,5,5,-1,1,0,1,1
1619049249.0653565,-3,0,3,0,0,1,-2,1
1619049249.0670931,-3,-3,-7,-4,-1,0,-1,0
1619049249.0996826,-1,-1,-3,0,-3,-3,-1,-2
1619049249.101529,-2,-2,0,-2,-2,-1,1,1
1619049249.1049798,0,0,-2,-1,0,1,0,0
1619049249.1068313,0,3,8,3,1,0,-1,1
1619049249.109144,-1,1,2,-1,-2,-1,-2,-1
1619049249.110884,-1,-2,-4,-4,-2,-3,-2,-2
1619049249.1140223,-3,-3,-5,-2,-3,-1,0,-1
1619049249.1157131,-1,1,7,2,1,-2,-1,2
1619049249.1216147,-2,1,1,-3,0,5,3,-1
1619049249.1234882,0,-3,-7,-5,-1,-1,-1,-1
1619049249.1266596,0,-4,-1,0,-1,-1,-1,-1
1619049249.1283414,0,2,5,2,-2,1,1,-2
1619049249.135534,-2,-1,-5,-1,-1,-1,-1,-1
1619049249.137255,0,-3,-4,-2,-1,2,0,-2
1619049249.1430602,0,0,-1,2,-1,-2,-3,-1
1619049249.1447642,1,1,4,4,1,0,0,1
1619049249.158162,-1,-2,-6,-1,-1,-2,-2,-1
1619049249.159865,-1,-3,-2,-1,-1,2,-1,-1
1619049249.1629298,-1,2,-1,-3,-1,-3,-3,-1
1619049249.1649473,-2,-2,-3,-1,0,-1,-1,-1
1619049249.1880558,-2,-1,-2,1,1,-3,-1,-1
1619049249.1899867,1,1,1,1,1,-2,-1,0
1619049249.1934373,-3,-2,-2,-4,-1,1,-1,-1
1619049249.195223,-3,0,-1,0,-2,-1,0,-1
1619049249.197704,-1,-3,-4,-5,-4,-3,-1,-2
1619049249.1995263,-1,-1,1,0,-2,-3,-3,-1
1619049249.2025692,0,-2,-3,-2,0,-1,0,-1
1619049249.204239,-1,-2,-2,-2,-1,0,0,0
1619049249.2180517,-3,1,1,-1,0,-1,-2,0
1619049249.2197635,-2,-1,-3,-3,-2,-1,0,1
1619049249.2228396,1,0,0,0,1,0,-1,0
1619049249.224674,-2,-1,3,0,-1,-3,-2,-1
1619049249.2410233,0,0,-1,-1,-2,1,-1,-2
1619049249.2429829,0,-2,-1,-2,0,1,0,-1
1619049249.2461007,-1,0,-1,0,-2,-1,-1,0
1619049249.2477946,0,1,-1,-2,0,-2,-2,-3
1619049249.2542837,-2,-1,0,0,1,0,-1,0
1619049249.25606,-1,0,-2,-1,-3,-1,-1,-2
1619049249.2640562,-2,0,1,0,-3,-2,-1,0
1619049249.2657485,0,-1,-1,-1,0,0,-2,-1
1619049249.2784665,0,0,-1,0,0,-1,0,0
1619049249.280187,-1,-1,-2,-2,-2,-1,-1,-1
1619049249.2838418,-2,0,0,-2,0,-2,0,-1
1619049249.2855222,0,0,0,-1,0,1,-1,-1
1619049249.301172,0,0,0,-1,-2,-2,-1,0
1619049249.3028936,-2,0,-2,-1,-2,-1,0,-1
1619049249.305943,-2,-2,-4,-2,-1,1,0,1
1619049249.307873,-1,0,-1,-2,-2,-3,0,-1
1619049249.3231509,0,-1,0,1,0,0,-1,0
1619049249.3249598,0,-1,0,-3,-2,2,0,-3
1619049249.3308017,0,0,1,1,0,1,1,-1
1619049249.3324888,0,-1,-2,-4,0,2,-1,0
1619049249.3382366,-1,-2,-1,0,1,0,-1,0
1619049249.339988,0,0,-3,-1,0,0,-3,0
1619049249.3432505,-1,-1,-1,1,-1,-1,-2,-1
1619049249.344967,-1,-2,1,2,-1,-2,0,-3
1619049249.3604465,-3,-1,-1,0,-3,-2,-1,-1
1619049249.36218,-2,-1,0,-1,-1,-2,0,-1
1619049249.3652012,0,2,1,-2,-3,-5,1,1
1619049249.3669314,0,-2,-3,2,1,0,0,-1
1619049249.3745942,1,1,-1,-1,-3,0,0,0
1619049249.3764653,-1,-2,-2,1,-1,0,-1,1
1619049249.3833902,-2,-3,-2,-2,-1,-1,-1,-3
1619049249.385087,-2,-1,-1,-2,-2,0,-2,-1
1619049249.3982155,0,-3,-1,-3,-1,-2,0,-1
1619049249.399948,-2,-1,-1,0,-1,-2,-1,0
1619049249.403035,0,-1,-1,-1,1,-1,0,-3
1619049249.4047294,-3,0,0,1,0,-3,-3,2
1619049249.42826,-3,-1,2,-1,-1,-2,0,0
1619049249.4299955,-1,-2,-1,-2,-2,-2,0,-3
1619049249.433006,-1,-1,-2,1,2,-2,-2,-1
1619049249.4347126,-1,-3,-8,-5,-2,-3,-2,-3
1619049249.4370189,-1,-1,-4,2,0,-2,0,-1
1619049249.4388366,3,4,5,3,0,-1,-1,0
1619049249.442882,-1,-4,-6,-3,-2,0,0,0
1619049249.4446037,-1,2,4,-2,1,0,0,-1
1619049249.465491,-3,-3,-6,-1,-2,-2,-2,-3
1619049249.4672546,-1,-2,-3,-1,-3,0,-1,-1
1619049249.470307,1,1,4,0,-4,-1,-2,-1
1619049249.4721317,-1,-4,-5,-2,-1,0,-2,-1
1619049249.4807007,0,0,-1,-4,1,0,-2,0
1619049249.4824247,-1,0,2,-1,2,-2,-2,0
1619049249.485512,-2,1,0,0,-2,-1,-2,1
1619049249.4872153,1,-2,0,1,-1,0,0,-1
1619049249.509752,-1,1,2,-1,1,0,1,-1
1619049249.5114975,-2,-2,-2,-1,-1,-1,0,-1
1619049249.5202298,1,-2,-5,-4,0,1,0,0
1619049249.5221543,-2,0,0,1,-2,-1,1,1
1619049249.524703,1,-1,0,-1,-1,1,-1,-3
1619049249.526414,-2,-3,-4,-3,-1,-1,0,-2
1619049249.5312726,-3,-2,-1,-3,-2,-1,-1,-1
1619049249.5329509,2,0,1,1,-2,-3,-1,1
1619049249.5403912,-2,-4,-5,-3,1,1,-1,2
1619049249.5421112,-3,-1,-3,0,-1,0,1,0
1619049249.5464425,-2,1,2,2,-1,-2,-3,-1
1619049249.5481484,-1,-1,-5,0,-1,-1,0,-1
1619049249.5538876,-2,-2,0,0,-1,-1,-1,-2
1619049249.5557406,1,-1,-4,-4,-2,0,-2,-1
1619049249.570536,-1,-1,1,0,0,0,0,-1
1619049249.5723302,-3,-2,-3,-3,-4,-2,-3,-1
1619049249.578227,-2,1,3,1,-3,-1,0,0
1619049249.5799496,-1,-1,-4,-1,-2,-1,-1,-1
1619049249.5830004,2,0,0,-1,-1,-1,0,0
1619049249.5847101,-2,-10,-21,-7,-2,-4,-2,-3
1619049249.60062,5,15,48,13,-1,0,2,-1
1619049249.6023467,0,7,16,8,2,-1,0,1
1619049249.6055663,0,1,-6,-21,-7,-2,-1,0
1619049249.6072888,0,-1,5,21,11,2,0,0
1619049249.614296,-3,-5,-20,-9,-3,-4,1,-2
1619049249.6160033,-3,-6,-8,-4,-8,-3,-1,0
1619049249.623781,-6,-13,-33,-23,-2,3,0,-6
1619049249.6255078,2,2,10,2,-11,-3,1,2
1619049249.638392,1,5,28,14,22,3,-2,-2
1619049249.6401274,-3,-3,-6,-2,-20,-12,-4,0
1619049249.6432185,-1,0,9,27,2,-4,-2,0
1619049249.6449084,-5,-7,-26,-32,-6,0,-3,-5
1619049249.6603527,-2,-8,-18,1,3,-1,-1,-1
1619049249.6621008,-3,-3,-5,6,-2,-4,-1,-1
1619049249.6651604,-1,4,-4,4,25,5,0,-3
1619049249.666885,2,7,27,-9,-22,-1,1,1
1619049249.6836042,0,1,0,-9,0,-3,-1,0
1619049249.6853094,-3,-1,-1,13,14,2,1,0
1619049249.6883574,0,-4,-2,10,-6,-2,0,1
1619049249.6900895,-2,-3,-3,12,10,3,2,-2
1619049249.697868,-5,-10,-34,-48,-6,2,-1,-1
1619049249.6996145,1,1,-2,-3,-13,-6,-3,0
1619049249.7053335,2,6,18,-3,11,1,0,-1
1619049249.7071345,-2,-4,-12,22,8,-4,0,2
1619049249.72081,-2,-5,13,0,-13,-2,-2,-3
1619049249.7225776,4,11,15,22,12,0,0,1
1619049249.7265544,-1,-6,-28,-52,-16,-3,-1,1
1619049249.7282498,-3,-1,5,4,11,6,0,-3
1619049249.7431011,-7,-22,-56,-4,-5,-7,-4,-3
1619049249.7448385,4,9,31,-6,14,8,2,1
1619049249.7479467,-2,-2,17,33,-6,-2,1,0
1619049249.7496445,-2,1,-7,-40,-16,-7,-3,-2
1619049249.7577877,-1,-4,-26,28,-7,-5,-1,-1
1619049249.759639,-1,-3,16,3,9,3,0,-1
1619049249.7638183,5,10,1,-3,30,15,6,3
1619049249.7655485,1,3,4,0,-17,-10,-2,0
1619049249.7880855,1,5,11,-14,-20,-3,0,0
1619049249.7899559,-1,-12,-39,-20,7,3,1,-1
1619049249.7933407,0,1,23,23,0,-1,0,-2
1619049249.795109,0,3,22,60,21,1,-2,0
1619049249.8106816,1,2,-12,-29,21,7,1,-1
1619049249.813094,2,9,28,25,5,-5,-1,1
1619049249.8165996,-5,-13,-40,-36,-19,-2,0,-2
1619049249.818545,-2,-2,-18,-35,-6,-4,-2,-1
1619049249.8253758,2,11,44,91,28,12,5,3
1619049249.8272755,-8,-16,-37,-96,-36,-19,-12,-8
1619049249.8502622,0,7,28,66,35,8,2,1
1619049249.8521156,-3,-5,-24,-67,-39,-7,-2,0
1619049249.8546484,0,-1,-13,-26,-17,-2,0,1
1619049249.856519,-5,-13,-42,-42,6,4,-1,-4
1619049249.8597877,6,20,68,70,38,0,-2,2
1619049249.8616576,-3,0,12,20,-15,-18,-7,-5
1619049249.8704908,-9,-19,-51,-37,1,-4,-5,-3
1619049249.8724,0,4,18,46,11,1,1,2
1619049249.8872874,-7,-9,-40,-74,-6,3,2,-4
1619049249.8891792,8,16,74,101,-12,-1,0,1
1619049249.8917122,5,4,24,-24,-61,-11,0,0
1619049249.8935556,-10,-17,-17,13,45,5,-5,-9
1619049249.8968315,-3,-8,-17,5,1,-2,-4,-1
1619049249.8987107,3,-3,-14,-28,-2,6,5,3
1619049249.9010901,-6,-13,-30,37,12,2,0,-3
1619049249.9029377,6,20,49,-27,-8,8,3,5
1619049249.9062595,4,14,37,53,-26,1,1,2
1619049249.9080963,-8,-19,-45,-28,22,-4,-5,-6
1619049249.9305227,11,15,32,-4,-8,-5,0,3
1619049249.9323947,-8,-21,-71,-16,0,20,9,-3
1619049249.9356117,-7,-10,-27,-23,-50,-28,-6,-3
1619049249.9374907,4,34,75,36,-6,7,2,2
1619049249.9400764,-4,-22,-54,-2,48,5,-3,-2
1619049249.941851,17,20,32,-24,-50,-11,2,6
1619049249.9453678,7,1,7,-37,12,-10,-9,-2
1619049249.947253,-11,-42,-119,-82,-40,-7,-5,-5
1619049249.9604552,9,37,94,86,49,13,6,6
1619049249.962358,-4,-1,-3,-93,-75,-23,-4,-3
1619049249.9655507,0,2,-2,24,-35,-13,-6,-2
1619049249.9673972,-4,-1,8,-11,21,9,3,0
1619049249.9845192,-8,-20,-68,-54,-4,-4,-5,-3
1619049249.987101,13,20,63,117,25,15,8,6
1619049249.9928415,3,-2,-17,-101,-57,-12,-2,-1
1619049249.9955225,4,13,25,69,15,4,7,6
1619049249.998975,-4,4,-19,-50,-48,-26,-16,-2
1619049250.0010862,-3,11,9,85,34,27,13,6
1619049250.0063496,-9,-7,14,3,-21,-18,-13,-8
1619049250.0084872,-2,-24,-73,-58,16,6,-1,-2
1619049250.0204206,8,12,35,13,-46,-12,-1,-1
1619049250.0221853,5,0,-16,14,8,-4,-3,-2
1619049250.0257373,10,31,74,81,42,2,0,3
1619049250.0275953,3,6,12,-26,-30,-7,-1,-1
1619049250.0443304,2,10,42,59,55,10,0,-4
1619049250.046359,-8,-20,-71,-47,-4,-7,-5,-2
1619049250.049616,-6,-10,-61,-29,11,9,5,-2
1619049250.0515091,4,9,37,41,56,24,8,2
1619049250.0565152,-3,3,6,-61,-63,-14,-1,2
1619049250.0586884,-6,2,40,80,17,4,1,-1
1619049250.0734582,1,6,39,9,-8,-7,-7,-4
1619049250.0755115,1,2,0,12,-8,13,6,2
1619049250.0808244,1,-13,-28,-52,-47,-6,-1,1
1619049250.0828552,-7,-9,-54,-77,-13,-2,-3,-3
1619049250.0864458,2,2,-1,36,-6,-6,0,1
1619049250.0883932,-2,-9,-47,-42,-25,-13,-7,-2
1619049250.110758,-1,-3,18,87,86,12,1,-4
1619049250.1127586,0,1,-1,-32,-76,-28,-11,-3
1619049250.1160502,-11,-31,-80,-29,41,27,3,-4
1619049250.1178873,1,9,65,-7,-56,-27,-11,-3
1619049250.1203961,2,3,-13,-7,24,6,3,1
1619049250.1224062,-4,0,21,61,16,-3,-6,-6
1619049250.1257615,-6,-24,-82,-75,-5,2,-1,-3
1619049250.1275904,4,16,2,17,8,12,12,4
1619049250.141943,-5,-7,-25,-74,-34,-8,-8,-5
1619049250.143917,-1,-5,-4,26,-6,-5,-3,0
1619049250.1471317,-3,5,48,63,7,6,-1,-1
1619049250.1490147,-6,-19,-73,-19,10,-14,-6,-3
1619049250.16337,-4,-4,7,-4,-19,1,2,-2
1619049250.16535,-7,-31,-91,-108,-23,3,5,-1
1619049250.1688168,7,20,72,76,-6,-5,-2,0
1619049250.1706467,-3,-9,-25,-73,-5,-15,-7,-3
1619049250.1775544,-6,3,26,10,28,1,-5,-3
1619049250.179601,2,8,21,17,58,9,1,1
1619049250.1839933,-3,-8,-11,22,16,13,10,1
1619049250.1858485,2,13,44,47,72,17,4,1
1619049250.2085402,1,5,-7,-31,-25,-9,-3,0
1619049250.2106256,-1,-1,20,6,28,7,-1,-2
1619049250.2140925,7,18,20,-100,-44,0,7,4
1619049250.2160952,-3,-2,17,22,-20,-15,-10,-3
1619049250.223478,6,20,66,49,22,18,10,6
1619049250.225521,-6,-23,-60,-37,-13,-15,-11,-5
1619049250.2289515,-5,-18,-55,38,90,18,4,-2
1619049250.2308085,6,19,64,4,-9,3,4,3
1619049250.2366962,-9,-34,-117,-103,-19,-9,2,-2
1619049250.2386148,2,7,28,26,-35,-20,-10,-5
1619049250.26159,-4,1,14,29,32,9,5,-2
1619049250.26361,-8,-14,-43,-15,-3,-4,-6,-6
1619049250.2663007,0,8,52,33,-2,7,-1,-1
1619049250.2682323,0,-5,-22,-41,-11,-6,0,2
1619049250.2714124,0,7,14,-14,11,2,-1,0
1619049250.2733066,-6,-13,-27,64,44,16,2,-2
1619049250.2844265,4,14,11,-46,-19,-4,-2,1
1619049250.286338,4,9,30,94,28,9,5,1
1619049250.2894695,-4,-25,-78,-61,-42,-14,-4,-2
1619049250.291372,-9,-5,6,-37,-18,0,-7,-8
1619049250.2966828,-1,-3,-1,60,0,-3,-1,0
1619049250.2986126,6,25,62,35,0,11,6,3
1619049250.3055627,-13,-34,-102,-68,-41,-22,-11,-7
1619049250.3074958,4,8,5,8,-1,1,2,3
1619049250.3222497,2,10,29,59,1,2,3,1
1619049250.3244035,3,14,56,52,10,-1,0,1
1619049250.33435,6,19,47,18,21,11,3,1
1619049250.336212,1,0,1,-16,11,1,-2,0
1619049250.3432271,-2,-11,-25,-16,-17,-3,-3,-3
1619049250.3452108,-8,-22,-56,-22,-15,-19,-7,-6
1619049250.3485172,14,33,104,29,-6,0,2,7
1619049250.3504493,-6,-17,-49,-50,-22,-9,-5,-5
1619049250.356628,2,11,33,27,24,4,2,2
1619049250.3586128,0,3,12,77,50,19,6,5
1619049250.365719,-4,-10,-27,-19,-42,-14,-4,-3
1619049250.3675923,1,-8,-30,16,27,9,6,0
1619049250.3807468,2,11,41,4,-6,-3,-5,-2
1619049250.3826692,0,10,24,-40,-16,2,0,1
1619049250.3859196,-4,-12,3,29,2,6,0,-2
1619049250.3877895,0,0,-19,-56,-29,-10,-1,0
1619049250.4026146,-6,-11,-25,29,-4,-8,-3,-7
1619049250.4044878,-6,-23,-55,-40,32,4,-6,-4
1619049250.4069698,-2,2,12,59,66,20,6,1
1619049250.4088538,-6,-17,-45,-74,-90,-31,-12,-6
1619049250.4168694,2,1,7,16,-4,2,3,3
1619049250.4187973,-6,5,28,-6,-18,-9,-6,-6
1619049250.4258833,-4,-9,-33,-34,5,-1,0,1
1619049250.4277437,-5,-14,-25,45,39,3,-2,-1
1619049250.4410985,-11,-32,-103,-54,18,4,-4,-7
1619049250.4431043,2,12,5,-7,-40,-7,-1,1
1619049250.4463394,3,4,-1,8,1,7,6,2
1619049250.4481668,-3,0,26,27,29,-3,-11,-7
1619049250.4640589,-10,-43,-117,-92,-37,-11,-4,-3
1619049250.4659548,1,7,25,-2,22,8,2,-1
1619049250.4692178,-5,-13,-44,-72,-43,-14,-8,-3
1619049250.4710891,-2,-14,-52,39,59,25,10,2
1619049250.4765952,7,14,63,34,-16,1,2,3
1619049250.4785137,-6,-20,-59,-28,-9,2,-2,-3
1619049250.4856422,-1,2,-3,2,-7,-4,-1,-2
1619049250.4875216,6,27,71,18,-6,1,4,3
1619049250.500801,-3,-1,6,50,42,6,-5,-4
1619049250.5026839,3,-5,-8,-7,-37,-10,1,1
1619049250.505809,-1,4,23,-12,-17,-9,-4,-1
1619049250.5077348,0,-1,23,31,28,15,3,1
1619049250.5244434,-5,-11,-62,-78,-33,-9,-4,-1
1619049250.5263388,-1,0,24,18,11,1,-1,0
1619049250.5372708,-1,1,-11,-27,-9,-21,-10,-2
1619049250.5389845,2,-3,-10,0,-8,-1,1,1
1619049250.541574,2,10,22,17,13,11,1,-2
1619049250.5432804,0,6,12,20,15,2,-1,-3
1619049250.5463154,4,8,23,-14,-2,12,2,0
1619049250.5480115,-3,-6,-22,40,20,-13,-2,-1
1619049250.56728,4,20,65,13,-1,4,2,3
1619049250.569133,-3,-11,-33,-33,1,3,0,-1
1619049250.5755284,2,6,27,17,-10,-8,-4,-2
1619049250.5773544,13,36,108,54,-6,10,7,6
1619049250.582675,-7,-10,-19,46,18,12,6,0
1619049250.5844,-4,-13,-44,-91,-56,-19,-10,-6
1619049250.5867732,0,7,44,61,33,8,0,-1
1619049250.5884502,3,13,26,-42,0,-3,-2,0
1619049250.6048274,-1,5,8,7,21,0,-2,-2
1619049250.606607,-1,-9,-27,1,-13,7,4,1
1619049250.6091535,-11,-25,-73,-63,-31,-18,-6,-5
1619049250.6108785,8,18,48,-4,-30,3,2,3
1619049250.6208117,-5,0,3,26,5,-9,-8,-5
1619049250.6225781,2,8,23,19,7,-3,2,4
1619049250.6276748,-8,-31,-108,-73,5,-3,1,-2
1619049250.6293528,0,13,58,-1,-45,-31,-13,-3
1619049250.6425545,2,3,11,-15,-3,-6,-1,0
1619049250.6443007,0,0,1,35,15,9,2,0
1619049250.646712,1,2,7,54,-22,-8,-4,0
1619049250.6483896,-6,-10,-36,-53,-22,5,1,-2
1619049250.664784,3,10,40,49,75,16,1,1
1619049250.6665318,-4,-12,-31,-26,-11,3,3,-2
1619049250.6688762,1,17,56,-42,-27,-1,-2,2
1619049250.6705716,1,12,47,62,38,10,2,2
1619049250.680465,4,10,19,-53,-41,-8,-1,-1
1619049250.6822834,8,22,80,59,45,9,4,2
1619049250.6872797,8,26,68,82,18,7,5,4
1619049250.6889853,-3,-11,-43,-59,-66,-10,2,-1
1619049250.7022874,-14,-44,-103,-100,-34,-17,-10,-7
1619049250.70402,9,25,38,51,35,16,11,7
1619049250.706412,-5,-15,-48,-46,-3,-6,-5,-4
1619049250.7082229,2,-4,-31,-25,6,3,1,2
1619049250.7330453,-4,-1,2,16,-7,-7,-3,-4
1619049250.734793,-2,-5,-13,-32,-17,-10,-4,-3
1619049250.7371132,-4,-19,-57,-35,28,14,5,-1
1619049250.7388127,1,7,14,42,26,0,-1,0
1619049250.7420683,8,20,53,43,-6,4,5,5
1619049250.7437875,-3,-11,-26,-30,23,6,-1,-1
1619049250.7462237,1,11,40,68,-21,-8,-3,-1
1619049250.747929,-4,-16,-31,-28,-4,3,-4,-5
1619049250.7623377,-1,-2,-19,-18,20,-1,-2,2
1619049250.764062,-4,-3,-26,-13,-27,-3,2,-1
1619049250.7664707,1,10,54,37,11,-10,-8,-5
1619049250.7682076,-7,-12,-46,-32,-36,-11,-5,-2
1619049250.7852795,16,29,50,74,3,3,2,6
1619049250.787017,-9,-12,-21,12,17,3,-2,-3
1619049250.7893791,-4,-17,-49,-29,-6,3,2,1
1619049250.7912421,-1,12,35,78,25,2,-1,-3
1619049250.8098526,-3,-2,5,-32,-7,5,1,0
1619049250.8115654,3,3,3,13,19,-3,-2,1
1619049250.8139184,3,1,-7,-10,-14,-2,-1,2
1619049250.8157063,-6,-23,-56,-82,-16,0,0,-2
1619049250.8225124,-3,4,41,37,23,1,-3,-3
1619049250.8244574,-2,1,6,-2,-16,-11,-8,-3
1619049250.827076,-1,0,-14,-7,-12,0,3,1
1619049250.8288314,-9,-27,-90,-44,-8,-3,1,-3
1619049250.8458204,1,-1,7,11,31,12,1,-2
1619049250.8477054,0,10,23,-32,-76,-25,-9,-3
1619049250.8526902,-1,-2,-3,-13,16,11,3,1
1619049250.8545444,4,17,58,62,22,-9,-6,1
1619049250.861099,-6,-16,-60,-29,-16,-6,2,0
1619049250.8630013,-4,-13,-41,-31,28,0,-5,-4
1619049250.8655932,0,1,17,34,-6,1,-1,-1
1619049250.8673177,-1,-2,-12,3,39,10,3,-1
1619049250.8826907,-4,-12,-49,-31,-34,-12,-5,-3
1619049250.884552,-7,-17,-49,-1,4,1,2,-3
1619049250.8869107,3,29,95,28,-9,1,-2,-1
1619049250.888596,1,-7,-24,-4,-1,-4,-2,1
1619049250.9047673,-5,-12,-55,-40,13,6,5,0
1619049250.9065778,0,1,32,32,-9,-9,-8,-3
1619049250.909119,3,8,26,-15,-10,-11,1,1
1619049250.9108481,0,1,13,33,-15,1,1,1
1619049250.920029,-3,-8,-23,-9,-12,2,1,0
1619049250.9217436,-4,-14,-58,-52,5,2,-1,-3
1619049250.9243815,-3,-1,-12,-49,-20,-3,-3,-3
1619049250.9262183,-2,3,24,42,1,-5,-4,-3
1619049250.9429948,6,15,43,20,-4,4,3,3
1619049250.944772,-3,-6,-13,-25,7,5,0,-2
1619049250.947156,5,7,29,49,18,0,1,3
1619049250.9488356,-2,3,15,-37,-27,-1,2,-1
1619049250.9648073,3,16,67,112,34,9,-2,-1
1619049250.9665916,-1,-2,-8,-46,-38,-11,-4,0
1619049250.9689708,-7,-18,-54,-55,-4,5,1,-5
1619049250.9706914,4,10,45,46,3,3,1,0
1619049250.981369,-6,-15,-45,-48,-15,-2,-5,-5
1619049250.983139,4,6,22,13,13,-1,1,3
1619049250.9855301,1,-6,-22,17,-4,-4,-2,0
1619049250.9872274,-6,-12,-28,-51,-4,-11,-6,-3
1619049251.0023837,1,6,19,33,-17,-13,-4,-1
1619049251.0041249,4,11,31,13,9,5,2,1
1619049251.0065355,-4,-9,-23,-5,-27,-7,-2,-5
1619049251.0083869,8,6,34,42,20,7,7,6
1619049251.025852,-6,-6,-21,6,31,-1,-5,-5
1619049251.027643,1,-3,-35,-19,2,0,3,3
1619049251.0300093,0,8,14,8,-1,-10,-8,-1
1619049251.0317085,-6,-6,-25,-42,-8,-2,-4,-3
1619049251.0415423,0,-6,-6,-35,-32,-8,1,-1
1619049251.0433588,0,-1,12,27,15,10,2,3
1619049251.0457256,-3,-8,-17,10,23,4,-2,-2
1619049251.047473,2,8,2,39,22,9,0,1
1619049251.0626123,-1,-2,-7,-35,0,-5,-4,-1
1619049251.064436,-2,3,20,18,0,0,0,-1
1619049251.0670373,-1,0,-4,-11,-9,-3,3,2
1619049251.0687318,-3,-9,-16,-8,1,-1,-4,-4
1619049251.0850325,11,32,104,81,1,11,12,6
1619049251.0869067,-5,-3,2,-34,5,-4,-4,-4
1619049251.0894392,-6,-23,-78,-49,-37,-3,-1,-1
1619049251.0913637,7,27,51,28,30,2,-1,0
1619049251.1000834,-6,-17,-60,-68,-58,0,1,-2
1619049251.101798,-3,-5,-11,21,44,6,-1,-3
1619049251.104126,-3,-4,-15,-46,-5,-4,-4,-4
1619049251.1058908,-3,-6,-18,9,-13,0,0,0
1619049251.1232297,-2,-8,-10,29,10,-7,-6,1
1619049251.1251504,6,18,48,70,-5,-1,4,4
1619049251.1276913,-2,-12,-46,-38,-7,4,1,-1
1619049251.1293771,10,39,90,77,20,7,4,4
1619049251.1447494,0,-9,-45,-57,-74,-26,-8,-4
1619049251.146576,-3,-4,-14,-30,-23,-7,-6,-2
1619049251.1489265,-4,-4,5,62,57,12,4,-2
1619049251.1506653,1,-4,-31,-99,-17,-1,3,3
1619049251.1598964,-6,-9,-13,-17,-4,-14,-7,-2
1619049251.1616185,0,-5,-16,-7,-10,-2,-2,-3
1619049251.1639748,0,7,20,9,35,14,5,5
1619049251.1656399,0,-9,-16,-3,-9,-7,-2,-1
1619049251.182567,-1,4,11,61,23,9,2,-2
1619049251.1842732,-1,-7,-28,-62,-13,3,1,-2
1619049251.1866884,-3,-2,-6,-2,36,14,3,-1
1619049251.188364,1,1,33,30,-10,-7,-2,0
1619049251.2057786,0,-2,-16,-5,24,10,3,1
1619049251.2077663,7,18,60,58,-2,-5,-1,2
1619049251.2103271,-3,-7,-8,-38,-38,-12,-6,-6
1619049251.2120588,-4,-8,-55,-22,15,4,0,-3
1619049251.2217827,7,25,90,33,11,0,-2,2
1619049251.2235386,7,7,15,25,22,7,4,3
1619049251.2260745,-5,-10,-39,-6,6,2,0,-1
1619049251.2277622,-8,-16,-34,-11,-3,-7,-6,-3
1619049251.2424867,-2,-2,-21,-48,-18,-3,3,-1
1619049251.2442029,-4,-1,-7,-12,-15,-9,-2,-1
1619049251.2465785,1,14,73,79,23,2,-5,-1
1619049251.2482533,-1,-6,-39,-53,-20,-5,0,-2
1619049251.2731183,-1,-6,-13,8,6,1,-1,-1
1619049251.2899685,-2,-6,-2,-2,-31,-4,0,-2
1619049251.2929292,-5,-28,-92,-74,-21,-11,-5,-4
1619049251.2947896,-3,-3,-23,6,-14,-5,-2,-1
1619049251.2980597,-2,-5,-21,-29,7,-1,-3,-1
1619049251.299888,-3,0,-7,2,-14,-2,1,-2
1619049251.3024096,-1,-1,6,2,7,-5,-3,0
1619049251.304118,-6,-16,-27,-47,6,4,0,-3
1619049251.3187184,1,12,45,9,-7,-4,1,0
1619049251.3204427,-4,-4,-4,-31,38,0,-4,-6
1619049251.322845,5,17,31,11,-40,-18,-2,2
1619049251.3248475,-3,-12,-20,4,-4,-1,0,-3
1619049251.3280065,7,28,86,38,-9,0,2,3
1619049251.3298688,-5,-10,-26,-19,-11,-7,-4,-1
1619049251.3324184,3,9,40,45,16,0,-1,0
1619049251.3342695,0,0,-13,-21,10,-5,-1,1
1619049251.3388968,-8,-22,-58,1,13,3,-1,-3
1619049251.3407438,3,11,29,-4,-5,-2,-3,0
1619049251.347545,0,-5,-10,14,13,0,-2,-1
1619049251.3493996,-4,-4,-9,-14,3,5,-1,-3
1619049251.3631427,2,1,-1,27,12,-4,0,1
1619049251.365013,-9,-19,-52,-49,-6,0,-4,-4
1619049251.3675768,-1,1,-9,-30,-6,-2,0,-1
1619049251.3693578,2,8,21,16,5,0,0,1
1619049251.3847885,-6,-10,-33,-26,6,-1,-1,-3
1619049251.3866959,7,13,35,32,-17,3,7,5
1619049251.3924448,2,15,36,13,7,0,0,0
1619049251.3943007,-4,-7,-16,-15,-24,-7,-5,-4
1619049251.4083092,1,-2,1,-8,-3,-5,-4,-5
1619049251.4102075,-6,-21,-65,-49,-11,-5,-4,-4
1619049251.4127588,0,3,18,52,3,2,1,-1
1619049251.4146957,0,7,32,32,6,4,1,0
1619049251.4222848,-6,-12,-37,-48,-8,2,1,-2
1619049251.424248,1,3,9,36,5,-2,-1,1
1619049251.4269338,3,9,20,25,11,4,1,1
1619049251.428782,-1,3,25,41,-3,5,1,0
1619049251.4453008,1,-7,-22,-25,-13,-4,-3,0
1619049251.4471993,1,4,19,19,6,2,1,1
1619049251.4526665,-2,-4,-12,-15,-8,-2,0,0
1619049251.4545794,-6,-8,-21,6,-5,-2,-1,-3
1619049251.4590502,0,-7,-25,-14,-11,1,1,0
1619049251.4608932,7,25,67,27,-9,-11,-4,3
1619049251.4673386,-1,-5,-25,-37,-16,-2,-2,-1
1619049251.469168,4,5,13,7,3,-4,0,0
1619049251.4916089,-7,-11,-39,-2,7,3,1,-3
1619049251.4937046,1,10,45,7,19,15,4,-1
1619049251.4965239,-3,-8,-14,-16,-14,-15,-8,-3
1619049251.4984663,3,-2,-12,8,-1,-5,-3,2
1619049251.5130632,-3,1,10,11,18,2,-1,-2
1619049251.514984,-6,-12,-32,-14,-3,-1,-1,-1
1619049251.5174778,2,1,6,-11,-7,-1,2,0
1619049251.519283,-2,-1,3,1,10,2,0,-2
1619049251.5223992,0,0,3,7,-1,-3,-4,-3
1619049251.5243537,-1,-7,-15,15,7,-1,-2,0
1619049251.5432649,1,1,4,6,-1,3,1,-1
1619049251.5452688,-1,-2,-13,-15,-6,-4,-3,0
1619049251.5600014,0,4,15,15,9,6,2,-2
1619049251.5620332,-1,-6,-15,-14,-11,-5,-3,-4
1619049251.5647218,-2,-1,-6,-14,0,1,2,1
1619049251.5667505,-1,-5,-3,-8,-11,-9,-5,-3
1619049251.5702412,4,6,21,19,4,-6,-2,0
1619049251.5722234,1,-2,-4,10,4,-2,-2,-1
1619049251.5749242,-4,-10,-24,-2,-3,0,-1,-1
1619049251.5767727,-1,0,2,-11,1,3,1,1
1619049251.5878778,1,-1,6,1,1,-1,-2,0
1619049251.589728,-6,-13,-41,-11,3,6,0,-5
1619049251.595019,2,14,32,-7,-15,-1,2,2
1619049251.5969267,-5,-2,-2,-4,2,1,-1,-1
1619049251.6024485,-1,0,-1,-6,-6,-2,-2,-2
1619049251.6043024,3,-2,-5,-7,-4,-1,-1,0
1619049251.6068847,-2,-2,-1,12,8,2,1,1
1619049251.6087265,0,-3,0,-13,-4,0,-2,-2
1619049251.6257904,-1,1,4,-9,-5,-1,-1,-1
1619049251.627675,0,0,4,18,3,-3,-2,-4
