1628231398.889908,-82,-83,-73,-27,22,86,44,-72
1628231398.8932564,41,56,20,3,-11,-56,-20,13
1628231398.8957982,-26,-41,-17,-11,6,35,11,-7
1628231398.8979008,-66,-69,-65,-22,21,69,44,-61
1628231398.9004035,61,72,36,12,-11,-70,-27,30
1628231398.9022696,51,48,46,18,-7,-40,-27,40
1628231398.9047644,-35,-39,-12,-5,4,31,12,-13
1628231398.9066966,40,55,26,10,-10,-47,-23,16
1628231398.9092436,52,53,55,26,-24,-58,-37,58
1628231398.911087,-62,-73,-44,-10,8,59,29,-29
1628231398.9154122,-21,-17,-30,-11,6,18,8,-26
1628231398.9174392,26,38,21,1,-8,-36,-13,12
1628231398.9201062,-24,-30,-6,-5,1,25,7,-8
1628231398.9221995,-41,-38,-39,-14,16,40,31,-37
1628231398.9349778,30,44,21,4,-10,-43,-12,16
1628231398.9368606,20,13,21,5,-4,-16,-4,20
1628231398.9422739,-33,-36,-28,-17,3,32,8,-17
1628231398.9443812,18,28,12,3,-6,-17,-6,4
1628231398.957328,32,35,28,13,-8,-33,-23,25
1628231398.9592354,-26,-31,-19,-9,2,27,8,-12
1628231398.9655404,-5,-1,-9,1,-2,1,0,-6
1628231398.967783,15,14,12,7,-1,-16,-11,5
1628231398.9733808,-3,-12,-6,0,-2,6,5,-6
1628231398.9763134,-11,-13,-8,-6,-3,11,10,-6
1628231398.9798071,16,13,9,2,-3,-18,-3,8
1628231398.9831955,-12,-17,-9,-7,2,11,6,-5
1628231398.9946685,-14,-13,-14,-5,8,12,0,-16
1628231398.9966729,12,11,7,7,-3,-15,-8,7
1628231399.0022423,6,9,1,1,1,-7,-8,4
1628231399.004099,-15,-17,-17,-10,5,15,4,-5
1628231399.0172145,19,26,13,5,-10,-20,-9,8
1628231399.0192673,9,10,13,10,-2,-9,-9,12
1628231399.025285,-9,-9,-3,2,2,8,9,-5
1628231399.0271566,-4,-8,0,-10,-6,5,3,0
1628231399.0322382,6,6,6,7,-4,-5,-4,5
1628231399.0341997,-14,-24,-15,-9,9,15,-3,-11
1628231399.039627,-9,-6,-11,-5,2,7,11,-8
1628231399.0417137,5,15,2,2,0,-9,-4,-2
1628231399.0547245,1,8,-3,-5,0,-11,-1,3
1628231399.0567179,-5,-1,-7,-7,1,4,2,-8
1628231399.0623908,18,22,11,7,-6,-16,-11,10
1628231399.0642788,6,10,2,3,-12,-4,-9,4
1628231399.0772252,-7,-11,-9,-7,-6,5,2,-5
1628231399.0792358,-13,-7,-15,-3,3,10,7,-9
1628231399.08528,1,0,1,-4,-1,-1,-5,0
1628231399.0873196,-20,-22,-17,-12,6,10,5,-17
1628231399.0920117,-3,3,-3,-3,-2,3,5,-6
1628231399.0939429,8,8,8,-3,-4,-10,-5,1
1628231399.0995631,13,7,14,0,-7,-10,-7,2
1628231399.101416,-1,-2,-4,-2,1,-3,-2,-1
1628231399.1162689,11,18,10,2,-13,-12,-5,8
1628231399.1194952,3,3,2,-1,-7,-6,-6,10
1628231399.122478,-12,-19,-8,-5,6,13,6,-5
1628231399.124512,-7,-6,-10,1,9,8,-2,-16
1628231399.1390421,1,-7,-1,-5,4,0,-1,-5
1628231399.1418946,-8,-9,-5,-6,-4,8,6,-6
1628231399.1458776,1,-3,-3,-4,-3,-2,5,-2
1628231399.1478653,6,4,2,0,0,-10,-1,8
1628231399.1519392,10,4,11,9,-1,-6,-4,3
1628231399.154031,5,5,-1,2,-3,-4,-3,-5
1628231399.1679165,12,11,5,0,-6,-16,-8,1
1628231399.1699085,-2,1,1,0,2,1,-1,-1
1628231399.1747148,-10,-13,-10,-6,7,15,2,-1
1628231399.1765852,-2,-1,-6,-2,-3,0,-1,-1
1628231399.1823366,-2,-3,-3,4,4,5,-1,-2
1628231399.1842015,-8,-5,-7,-5,-5,5,6,-1
1628231399.1974227,2,-4,-1,-3,-4,-6,2,1
1628231399.1995156,7,10,4,1,0,-9,-7,4
1628231399.2054818,1,-2,4,-5,-3,2,-1,4
1628231399.2077055,7,6,8,2,-9,-4,-1,0
1628231399.2131255,6,12,6,5,-3,-9,-7,8
1628231399.2151988,-3,-11,-4,-3,1,3,0,-6
1628231399.2278907,-11,-12,-12,0,6,9,8,-4
1628231399.2299542,4,8,-1,1,-10,-7,-1,-2
1628231399.2346888,-3,0,-1,1,3,8,3,-3
1628231399.236987,-9,-7,-5,0,1,5,7,-7
1628231399.24218,2,7,1,3,-3,0,-9,4
1628231399.244058,7,1,6,-2,1,-12,-6,4
1628231399.257356,-5,-8,-2,-3,7,4,1,-2
1628231399.2592678,3,4,3,2,-5,-7,-5,4
1628231399.2652586,6,5,6,1,-2,-12,-7,4
1628231399.267202,-10,-3,-6,0,10,3,0,-2
1628231399.2719905,0,-3,-5,1,-7,0,2,-10
1628231399.2743664,8,12,4,-3,-9,-8,-3,4
1628231399.2881134,-5,0,-8,-5,-3,0,-2,-1
1628231399.2901516,-9,-16,-11,-1,5,18,10,-13
1628231399.2946439,-12,-8,-6,-7,2,12,3,-5
1628231399.297106,3,2,6,2,-4,1,-4,3
1628231399.302155,-7,-8,-6,-4,2,6,1,-12
1628231399.3040307,-1,3,5,-3,-5,-6,-4,3
1628231399.317094,16,16,9,1,-1,-17,-8,10
1628231399.3193555,13,8,10,2,1,-12,-2,7
1628231399.3253527,0,2,2,-1,-3,-5,0,0
1628231399.3272457,7,6,8,7,-8,-4,-6,10
1628231399.3319373,-2,-6,-2,-2,-1,2,1,-2
1628231399.3339798,-31,-33,-17,-9,8,26,8,-17
1628231399.3482347,-12,-7,-21,-7,10,13,10,-20
1628231399.3502266,3,-2,1,-3,-3,-1,-2,-3
1628231399.3547332,-2,-4,-11,-3,2,-1,0,-9
1628231399.356622,3,-4,-4,0,-2,0,-6,4
1628231399.3704057,20,29,14,4,-8,-20,-5,15
1628231399.3723395,14,10,19,7,-16,-9,-6,18
1628231399.377081,2,2,4,-1,-3,-10,1,3
1628231399.3795948,11,4,8,1,-8,-7,-7,11
1628231399.3852985,2,-6,-5,-4,0,0,-1,-2
1628231399.3873534,-25,-28,-25,-9,7,26,5,-18
1628231399.391931,-8,-4,-17,-5,10,7,4,-20
1628231399.3938081,-9,-2,-8,-3,2,4,2,-4
1628231399.4084198,-8,-7,-6,-8,4,2,-1,-7
1628231399.4104695,2,2,-5,-1,0,-10,0,-2
1628231399.4147403,20,31,12,5,-7,-20,-9,16
1628231399.4165704,14,10,17,5,-8,-10,-4,19
1628231399.422938,-2,6,6,-1,-3,-1,2,-2
1628231399.4247668,7,2,8,-3,-4,-2,-7,3
1628231399.4371052,-1,-7,-2,-2,-4,3,4,-3
1628231399.439167,-24,-15,-17,-8,2,16,7,-10
1628231399.4454386,-4,-5,-11,-4,1,5,10,-14
1628231399.4475503,-5,-6,-3,-2,1,1,1,-2
1628231399.4524024,-5,-2,-5,-5,1,3,7,-7
1628231399.454572,4,3,3,-2,-1,-3,-2,-3
1628231399.467996,21,19,10,1,-11,-18,-10,6
1628231399.47013,6,7,8,3,-7,-2,-6,12
1628231399.4747865,3,3,7,0,-6,-3,-2,1
1628231399.4767935,2,0,0,3,3,-3,-6,1
1628231399.4830825,-4,-4,-1,0,3,1,0,-4
1628231399.4851649,-13,-3,-6,-3,-4,3,2,-4
1628231399.4973145,-3,-3,-8,-2,1,4,4,-8
1628231399.5004795,-4,-5,-7,2,5,-1,3,-2
1628231399.5068517,-3,-3,0,-3,-2,9,7,-3
1628231399.5088825,-2,-1,-3,-6,-2,-5,-3,0
1628231399.5145276,7,15,5,0,-8,-12,-12,8
1628231399.517611,6,5,4,4,8,-3,-6,5
1628231399.5278802,-2,-3,0,5,3,2,-2,3
1628231399.5298586,11,14,8,6,0,-11,-9,4
1628231399.5359917,-3,-4,-1,-1,2,-6,-7,4
1628231399.5390925,-5,0,-6,1,-9,2,1,-8
1628231399.5430856,-5,-1,-6,-8,-6,0,0,3
1628231399.5452664,-2,-10,-6,-1,9,5,-1,-5
1628231399.5571222,-15,-19,-11,-8,7,18,12,-12
1628231399.558863,-3,-4,-10,-3,7,6,1,-5
1628231399.56535,6,7,2,1,4,-9,-7,4
1628231399.5672264,2,1,-5,2,-2,2,-5,-4
1628231399.5718477,-3,-5,-9,3,1,0,-2,0
1628231399.5735548,17,27,17,8,-11,-26,-12,15
1628231399.588043,6,0,6,2,-4,-2,-6,9
1628231399.5897996,-5,-4,2,-2,-4,5,5,0
1628231399.5948253,2,1,7,2,-7,-3,2,4
1628231399.596725,-2,-4,-2,-1,0,-3,2,-3
1628231399.602892,-27,-31,-22,-11,8,21,8,-15
1628231399.6049507,-8,4,-4,-2,3,5,5,-6
1628231399.6173873,-1,2,0,-4,1,-5,-7,-2
1628231399.6194208,-8,-4,-14,-11,-3,9,-1,-9
1628231399.6262925,-1,-1,-3,-2,-3,-5,-3,-3
1628231399.6280487,23,30,17,11,-12,-32,-11,11
1628231399.6320908,2,2,1,3,-10,-6,-10,9
1628231399.6340199,-2,-10,-1,1,-1,6,0,-3
1628231399.6507218,1,-3,4,2,1,4,4,3
1628231399.653081,-8,-2,-3,-5,-4,0,1,-2
1628231399.6562333,-18,-25,-20,-8,13,22,11,-17
1628231399.6581094,-6,-3,-1,0,3,0,6,-8
1628231399.671326,-3,3,-1,-1,-2,-9,-6,-1
1628231399.673778,4,3,-3,-3,4,-8,-3,-11
1628231399.6770718,-3,9,2,-1,4,-2,0,-2
1628231399.6795044,17,25,20,3,-7,-18,-9,14
1628231399.6869347,1,5,6,1,-4,-4,-5,5
1628231399.6888866,-6,-11,-4,3,7,16,8,-3
1628231399.6919396,-8,-5,-10,-3,5,7,8,-6
1628231399.6939054,-6,-11,-1,-3,-3,1,-1,-4
1628231399.7086763,-6,-10,-16,4,8,8,6,-9
1628231399.7105546,1,0,-3,-4,0,2,6,-2
1628231399.7146752,5,4,4,-1,-4,-10,-5,0
1628231399.7166913,9,8,11,1,-2,-6,-8,-2
1628231399.7321434,6,5,1,-3,-4,-6,1,-2
1628231399.7343032,11,6,7,3,-7,-8,-9,13
1628231399.73707,3,-2,0,0,-4,-4,-10,2
1628231399.7398233,-10,-11,-10,0,5,7,7,-2
1628231399.7470784,-8,-3,-10,-1,5,5,0,-7
1628231399.7508671,-6,-6,-5,3,0,7,-3,-3
1628231399.7558243,-10,-6,-7,-4,-10,5,4,-6
1628231399.7587073,0,-2,-4,-5,-3,-2,-2,2
1628231399.7706773,4,4,2,-4,-7,-10,-6,0
1628231399.7733448,4,2,9,-2,-4,-3,-3,1
1628231399.7771292,5,8,2,4,-3,-6,-3,0
1628231399.7798483,13,13,7,3,0,-12,-10,5
1628231399.7939332,-6,-5,-1,-4,-5,3,-1,1
1628231399.796215,-9,-13,-9,-3,0,2,2,2
1628231399.7980924,1,5,-1,0,-1,-2,-1,0
1628231399.79919,-4,-2,3,-4,-6,1,-2,1
1628231399.8051784,-12,-9,-7,-2,-1,10,7,-2
1628231399.8063376,6,2,5,-6,-8,-8,1,-1
1628231399.8186045,9,7,4,0,-1,-11,-4,10
1628231399.819578,-2,-4,2,2,0,5,0,5
1628231399.827269,4,8,2,5,-2,-8,-4,-4
1628231399.8281083,2,1,-3,3,4,-8,-2,-5
1628231399.8346727,-10,-5,-6,-2,3,9,3,-7
1628231399.8366895,-7,-8,-6,2,3,8,2,-8
1628231399.851377,7,11,4,0,-5,-9,-4,-5
1628231399.8536003,-2,0,1,-1,2,3,-3,-2
1628231399.85702,-7,-12,-5,-2,-3,7,1,-4
1628231399.858735,4,2,2,-3,-12,-5,-7,3
1628231399.8672295,6,8,8,0,-3,-9,-5,4
1628231399.8692653,-6,-7,-3,1,8,6,7,8
1628231399.8887126,2,-2,2,0,-1,-7,-2,-6
1628231399.890865,9,8,6,-3,-1,-8,-6,3
1628231399.8948362,-5,-7,-2,-1,8,-1,3,0
1628231399.8970249,-5,0,-3,1,-3,-4,-4,-7
1628231399.9020367,6,11,3,1,-6,-7,-8,1
1628231399.904461,0,-1,-7,-2,0,-2,4,-2
1628231399.9115572,-13,-18,-9,-2,5,21,9,-12
1628231399.9136775,-14,-9,-13,-2,6,12,-2,-13
1628231399.9182189,4,1,-1,-3,1,0,4,5
1628231399.9204705,-6,-8,-6,-3,8,4,4,-8
1628231399.926055,1,3,-4,-5,-1,-7,-1,-4
1628231399.9279191,17,21,14,0,-13,-23,-9,9
1628231399.939932,16,9,22,5,-10,-13,-2,11
1628231399.9419389,-2,-1,-1,4,-2,3,3,-1
1628231399.9490612,6,6,10,-5,-12,-5,-14,15
1628231399.951286,0,-2,2,-1,-4,3,-1,2
1628231399.9628346,-28,-32,-21,-10,11,23,13,-19
1628231399.9659097,-18,-9,-22,-8,13,11,7,-23
1628231399.9720776,2,-2,5,1,4,0,2,0
1628231399.974266,-5,-3,-10,-9,2,11,4,-12
1628231399.9936078,3,1,2,-2,-3,-1,-6,2
1628231399.9954796,20,26,18,2,-9,-21,-4,13
1628231399.9992568,15,6,18,12,-10,-12,2,21
1628231400.001046,1,3,-3,-4,-4,-13,-2,-2
1628231400.004098,9,4,11,-3,-7,-6,-10,6
1628231400.006599,-5,-3,-4,1,-4,-4,0,-7
1628231400.0147686,-24,-30,-23,-7,13,25,9,-14
1628231400.017234,-9,-5,-14,-7,10,9,4,-13
1628231400.0221784,-4,-4,-6,5,10,5,0,4
1628231400.0240405,-7,-6,-9,-7,3,0,9,-1
1628231400.033629,-5,0,0,-1,-7,-8,-3,-7
1628231400.0369332,14,25,17,6,-11,-22,-8,15
1628231400.0405529,13,12,15,14,-8,-10,-8,17
1628231400.0434577,6,2,1,-3,-11,-5,-4,1
1628231400.049281,3,3,-1,0,-8,-1,-5,5
1628231400.0516653,-1,-4,-4,-6,-1,1,4,-7
1628231400.0596108,-18,-18,-15,-5,1,14,1,-11
1628231400.0621495,-5,-4,-7,-5,3,5,4,-10
1628231400.0703824,-1,-1,-7,-4,0,5,1,-7
1628231400.072217,2,-3,-5,-2,1,5,7,-3
1628231400.0821588,3,2,1,-5,-3,-6,-2,-1
1628231400.0835183,15,18,8,9,-1,-13,-6,12
1628231400.088847,5,7,10,6,0,-4,-3,11
1628231400.0901647,0,-1,0,3,-3,3,-4,5
1628231400.098611,3,0,3,1,1,-3,-5,0
1628231400.1015043,-3,-10,-5,-5,-3,1,0,-7
1628231400.1057837,-3,-6,0,2,-2,10,3,-4
1628231400.1080375,-5,-4,-7,-2,-2,3,3,-5
1628231400.118686,-5,-8,-4,-6,-1,3,2,-7
1628231400.1198053,-7,-5,-7,-4,2,8,5,-7
1628231400.1281457,-2,-3,1,-2,-1,0,-3,-7
1628231400.1311414,18,15,8,5,-2,-12,-6,3
1628231400.1435978,5,4,4,2,-7,-1,-7,1
1628231400.1464868,-2,-2,-3,-2,3,-3,-3,1
1628231400.1504824,11,12,6,4,-6,-14,-8,10
1628231400.1518965,3,0,1,1,3,-8,2,2
1628231400.1563146,-6,3,-4,-1,-3,6,6,-5
1628231400.157828,1,2,3,0,2,1,2,3
1628231400.1658564,-3,0,-3,-6,-1,-1,0,-1
1628231400.167942,-19,-22,-18,-9,-1,17,6,-6
1628231400.1797564,-6,3,-7,0,10,-1,1,-11
1628231400.181989,11,11,3,-1,-7,-10,-8,4
1628231400.1885624,1,1,-3,-4,-1,1,-9,-6
1628231400.1904309,-2,5,0,-1,-1,3,-2,-5
1628231400.2033415,19,27,17,11,-9,-20,-1,13
1628231400.2055275,1,0,6,5,-7,-2,-6,3
1628231400.2107887,-3,-4,0,-1,-4,-1,2,-5
1628231400.2126856,1,0,8,2,-5,-6,-3,7
1628231400.2262156,0,-3,0,-6,-4,-4,-1,-1
1628231400.2291512,-28,-29,-21,-10,1,28,9,-18
1628231400.2332864,-1,4,-11,-2,8,-1,2,-5
1628231400.235466,6,-1,-1,0,6,-4,-7,-1
1628231400.2397833,-9,-4,-11,-7,3,3,-4,-7
1628231400.2420537,1,1,1,1,1,-4,-1,-2
1628231400.2501798,24,32,19,8,-19,-21,-10,9
1628231400.2523859,6,1,8,2,-6,-7,-2,9
1628231400.2645378,-5,-8,-1,2,-2,1,3,-1
1628231400.267996,-5,-4,-1,-5,-3,7,-3,-3
1628231400.2732172,-2,-7,-2,-4,-5,0,-2,-2
1628231400.2754447,-23,-29,-22,-11,-1,15,7,-19
1628231400.2854881,-1,-2,-3,-4,0,-5,1,-3
1628231400.2875266,2,3,1,-8,-3,-6,2,-3
1628231400.2933376,7,4,9,4,2,-8,5,2
1628231400.2951598,0,6,-2,0,-1,-3,-2,2
1628231400.2993867,21,21,16,11,-6,-13,-8,22
1628231400.3013928,4,4,0,-2,-8,-7,-3,6
1628231400.3085968,-17,-16,-10,-4,10,15,-1,-3
1628231400.3104987,-7,-3,-9,-6,5,9,2,-18
1628231400.3229806,-6,-7,0,-4,-4,-3,-3,-2
1628231400.3248212,-11,-13,-12,-6,0,8,6,-10
1628231400.330171,1,-2,-4,-2,1,3,-1,1
1628231400.3322654,5,5,1,-2,-5,-6,-4,2
1628231400.3472517,9,6,9,-2,-8,-4,0,5
1628231400.3494809,5,8,3,5,6,-4,-3,3
1628231400.3530314,11,11,9,4,-2,-16,-9,8
1628231400.3549294,-2,-5,5,0,-7,-3,-3,6
1628231400.3599465,-12,-13,-9,-3,8,9,3,-6
1628231400.3618157,-1,-4,-5,-4,-2,3,8,-10
1628231400.3689425,-8,-2,-3,-3,0,5,2,0
1628231400.371083,-3,2,-4,3,7,6,6,-10
1628231400.3838212,-1,2,-2,-6,-2,-4,-4,-2
1628231400.3859413,5,3,6,-2,-6,-13,-9,4
1628231400.3972378,3,2,5,-3,-3,-4,-3,4
1628231400.3993397,3,6,1,1,-2,-5,-2,-4
1628231400.4140096,14,11,6,5,-1,-10,-4,9
1628231400.4162266,-2,-2,-1,0,3,1,-4,-5
1628231400.4199986,-15,-14,-9,-1,2,8,7,-11
1628231400.422134,2,3,-1,-1,-5,-5,1,1
1628231400.4248753,-4,-6,-7,4,3,4,0,-5
1628231400.4269385,-2,-6,-11,0,0,3,4,-6
1628231400.4306638,7,1,5,-1,-5,-3,0,1
1628231400.4326591,4,8,9,-2,-4,-14,-6,5
1628231400.451217,-4,-7,-2,-1,-1,4,-4,0
1628231400.4531105,6,3,3,3,-5,-5,-3,6
1628231400.456403,8,11,3,2,5,-10,-7,3
1628231400.458382,-8,-6,-10,-8,0,8,-2,-9
1628231400.4662004,-2,-7,-6,-3,2,0,-2,-10
1628231400.4689114,7,14,3,3,1,-11,-6,1
1628231400.4744983,-5,-5,-1,-1,1,6,5,-4
1628231400.4764805,-5,-13,-12,-1,5,12,3,-7
1628231400.479553,8,2,-1,-6,-9,-1,-4,2
1628231400.48168,7,10,4,0,-4,-6,-9,-1
1628231400.4885402,-4,-9,-4,-4,1,2,-1,-4
1628231400.490421,7,9,4,-2,-7,-1,0,7
1628231400.5028446,9,13,10,1,-1,-12,-5,3
1628231400.5049343,-6,2,-5,-9,-1,-10,-1,2
1628231400.5122855,-2,3,-3,-2,-4,-2,1,-5
1628231400.515027,7,10,11,1,-8,-9,-1,8
1628231400.5274875,-7,-7,-6,-5,3,5,1,-4
1628231400.529964,-19,-26,-13,-5,6,27,9,-7
1628231400.5347111,-14,-10,-23,-5,8,14,4,-18
1628231400.5369499,4,1,1,0,2,-2,0,4
1628231400.5397644,-7,-5,-9,-5,6,3,3,-12
1628231400.5419154,5,-4,3,4,1,-1,-3,3
1628231400.548959,24,26,13,7,-11,-20,-10,10
1628231400.5508876,17,10,21,14,-6,-8,-2,16
1628231400.5631964,1,5,-4,-1,-4,-3,0,-1
1628231400.5652328,7,8,10,-1,-9,-6,-4,13
1628231400.569773,1,-5,-1,-3,1,-2,-3,2
1628231400.5719266,-30,-34,-25,-10,13,23,4,-19
1628231400.5859041,-11,-4,-16,-8,10,11,7,-18
1628231400.587701,-2,-1,-3,0,1,2,0,-6
1628231400.5908856,-2,-6,-12,-12,-1,7,6,-12
1628231400.5926912,1,0,-2,-2,-1,-4,-2,-1
1628231400.5995986,22,25,20,8,-10,-28,-9,20
1628231400.6018887,15,7,18,11,-5,-10,-3,23
1628231400.6095831,1,1,6,4,1,0,-2,-2
1628231400.6114502,10,4,9,3,-8,-9,-6,9
1628231400.6229055,2,-6,3,-2,-2,3,2,-4
1628231400.6248348,-21,-22,-21,-9,0,17,8,-14
1628231400.630205,-7,-6,-12,-4,12,4,11,-12
1628231400.6322217,-3,-2,-2,1,5,-4,4,0
1628231400.6465142,-4,-4,-9,-7,5,2,8,-5
1628231400.6487043,5,4,-2,-2,-2,-7,-4,0
1628231400.652757,23,20,20,3,-10,-20,-10,12
1628231400.655035,6,6,11,8,-11,-6,-9,15
1628231400.659584,3,5,1,0,-8,-5,-2,6
1628231400.6615107,3,2,4,3,8,-1,0,1
1628231400.6693263,-5,-5,-8,-3,-2,4,5,-2
1628231400.6713357,-16,-14,-13,2,6,10,5,-9
1628231400.6834161,-7,-3,-11,-6,-5,5,8,-8
1628231400.6852875,-4,-5,-4,-2,-1,7,-4,-6
1628231400.689384,0,1,3,-5,-2,2,2,-5
1628231400.6912837,4,5,4,-1,-1,-4,-7,-2
1628231400.7065,13,14,11,7,-1,-14,-8,9
1628231400.7084408,5,7,8,6,-3,-9,-5,9
1628231400.712022,2,4,-4,1,-1,-3,2,8
1628231400.714213,0,-2,-1,2,-1,-3,-7,0
1628231400.7201693,-5,-2,0,-1,5,4,1,-1
1628231400.7220962,-6,-5,-5,-2,-5,4,4,-5
1628231400.7285576,-3,-3,-4,-1,2,1,2,-3
1628231400.7305753,-3,-8,-1,1,3,5,4,-3
1628231400.7428255,-10,-9,-8,-6,8,12,7,-13
1628231400.7448661,-2,-2,-4,-3,0,7,-1,-7
1628231400.749822,4,11,8,1,-2,-15,-12,7
1628231400.7517145,3,8,2,2,0,-3,-3,0
1628231400.7663834,-1,-6,-3,-1,2,2,-1,-2
1628231400.7686057,13,15,15,7,-5,-20,-8,10
1628231400.7724795,9,0,2,0,-1,-5,-7,3
1628231400.7745693,-2,-1,1,4,1,2,1,0
1628231400.7796948,2,0,2,2,-4,-4,0,4
1628231400.7825062,-2,-1,-5,-5,-1,1,2,-4
1628231400.7887294,-24,-22,-19,-8,-1,20,9,-17
1628231400.7905855,-4,1,-13,-9,6,-1,-1,-13
1628231400.8029883,6,8,0,-2,-2,-6,-8,4
1628231400.80488,-1,-5,-6,-7,-4,-1,-4,-7
1628231400.8171775,-1,-2,-4,2,3,1,4,-1
1628231400.8190992,24,25,19,9,-12,-25,-6,18
1628231400.8259313,1,4,10,5,-5,-7,-3,9
1628231400.8277602,-3,-2,-5,1,-3,1,0,-1
1628231400.8315585,6,3,8,-2,-16,-4,-6,7
1628231400.8336372,5,0,-2,-5,-10,-4,2,-1
1628231400.839677,-26,-37,-24,-18,3,23,5,-18
1628231400.8415368,0,2,-3,0,7,-2,1,-7
1628231400.8490095,10,4,3,4,5,-10,-2,5
1628231400.8512774,-5,-3,-8,-9,0,-1,0,-11
1628231400.863447,-3,1,-2,-1,5,-3,-2,-9
1628231400.8656852,24,30,20,10,-6,-27,-7,14
1628231400.8699124,-2,4,2,6,1,-1,-6,9
1628231400.871869,-7,-10,-7,-6,-6,7,3,0
1628231400.8861837,-4,-3,-5,-6,-5,8,-3,-8
1628231400.88825,-1,-11,-2,-3,-2,-3,-1,-3
1628231400.8918097,-21,-25,-14,-8,5,14,5,-15
1628231400.8936818,-1,-2,-5,-1,4,6,2,-5
1628231400.8996627,13,8,1,2,-5,-5,-4,3
1628231400.9018922,8,4,8,1,0,-6,3,1
1628231400.9087138,5,3,-1,0,-7,1,3,-4
1628231400.91062,20,20,20,10,-3,-15,-11,16
1628231400.9231727,4,1,4,4,-5,-7,1,7
1628231400.9251354,-17,-13,-8,-3,4,11,-1,-5
1628231400.930239,-7,-6,-11,-4,3,5,0,-16
1628231400.932283,-2,-2,-1,2,0,3,-2,0
1628231400.9465997,-7,-7,-6,-3,-3,4,4,-15
1628231400.9487178,-4,-1,-6,1,5,-2,4,1
1628231400.9521828,6,6,4,-3,-3,-9,-5,1
1628231400.9540906,9,7,8,2,4,-5,-6,11
1628231400.9594967,6,5,3,1,-3,-7,2,5
1628231400.9613252,15,8,13,0,-10,-12,-7,8
1628231400.9687917,3,2,-1,-1,0,0,-5,5
1628231400.9717035,-9,-15,-10,-5,3,4,1,-11
1628231400.9830923,-1,1,-7,0,3,3,2,-4
1628231400.9850037,-3,-8,0,-2,3,2,-4,-1
1628231400.989531,-5,-10,-8,-2,0,10,8,-9
1628231400.9923294,0,0,6,-7,-3,-6,-1,-6
1628231401.007516,3,7,5,0,4,-7,-11,3
1628231401.0093765,2,1,3,2,-3,0,-4,-1
1628231401.0130165,1,5,-1,-1,-7,-2,-3,1
1628231401.0150604,6,7,7,-1,-4,-10,-7,7
1628231401.019662,-3,-6,-4,-4,-3,3,-3,-4
1628231401.0215118,-13,-6,-10,-2,2,8,3,-2
1628231401.028448,2,6,2,1,3,-8,-4,-1
1628231401.0308304,-2,-9,-7,-4,-2,2,2,-4
1628231401.0427747,-9,-9,-5,-3,-6,7,4,-6
1628231401.0448523,5,5,1,-8,-6,-6,-2,1
1628231401.050013,5,5,4,2,-3,-6,-1,11
1628231401.0520687,-8,-7,-4,-1,7,6,0,0
1628231401.0657108,3,4,3,4,-1,-4,-1,5
1628231401.0678692,10,11,3,-1,-6,-9,-7,3
1628231401.0726528,-7,-8,-8,-3,7,2,1,-2
1628231401.0751233,-6,-3,-6,-2,-4,6,1,0
1628231401.0886424,9,12,4,4,-10,-7,-8,3
1628231401.0906715,2,-7,-5,-1,2,6,1,-4
1628231401.0942137,-6,-10,-6,-6,-6,13,-2,-15
1628231401.096604,3,-5,3,-1,-5,5,2,-3
1628231401.103131,7,3,7,3,1,-3,-5,4
1628231401.1051893,-7,-8,-4,-5,-1,5,-1,-4
1628231401.109362,6,4,0,3,-5,-4,-3,1
1628231401.1112208,12,15,5,2,-4,-18,-6,3
1628231401.1272712,5,8,3,-5,1,-14,-2,5
1628231401.130788,-3,-1,-2,1,-1,2,-2,-2
1628231401.1355054,6,10,9,9,-3,-8,-3,12
1628231401.1379266,-9,-5,-4,-3,2,0,0,-7
1628231401.1489222,-20,-29,-17,-4,8,20,6,-15
1628231401.1508064,-15,-6,-23,-7,9,14,-1,-20
1628231401.1539288,2,-1,8,-3,-4,-1,-1,3
1628231401.1556346,-2,-3,-8,0,0,3,-3,-13
1628231401.1628213,-1,0,4,3,2,-8,2,-1
1628231401.164871,20,21,16,8,-9,-20,-5,12
1628231401.170469,12,8,16,6,-8,-12,-7,17
1628231401.1730905,-2,5,-2,1,-2,-2,0,1
1628231401.1853852,3,5,13,2,-8,-4,-9,11
1628231401.187771,-5,-4,-1,0,0,-1,-2,-2
1628231401.1932282,-27,-33,-23,-13,8,20,8,-20
1628231401.1961818,-9,-3,-18,-4,10,11,10,-24
1628231401.2108486,1,-6,-5,0,8,3,2,-3
1628231401.2148411,-8,-5,-14,-6,0,10,4,-10
1628231401.2219884,2,2,1,-2,2,-6,-6,0
1628231401.225613,17,21,15,8,-3,-17,-9,14
1628231401.230701,12,7,13,3,-10,-11,-6,16
1628231401.233528,0,1,7,7,3,-2,-1,4
1628231401.2425318,5,4,10,-6,-7,-4,-6,3
1628231401.249084,-2,-4,-1,-1,-2,4,-2,0
1628231401.2536666,-25,-31,-22,-4,6,17,8,-14
1628231401.2577455,-3,-2,-12,-5,6,4,9,-13
1628231401.2634344,-4,-4,-6,-2,0,4,2,-4
1628231401.2661264,-2,-4,-8,-9,-3,-2,4,-10
1628231401.273748,4,5,1,-6,-7,-1,2,0
1628231401.2764041,18,20,14,6,-6,-17,-5,11
1628231401.2816107,7,6,12,11,-1,-6,-6,14
1628231401.2840889,1,2,0,1,0,0,-2,3
1628231401.2873573,6,2,4,7,3,-5,-6,2
1628231401.2894375,-6,-8,-6,-5,-3,4,1,0
1628231401.2934601,-8,-12,-14,0,4,9,4,-7
1628231401.295637,-4,-4,-8,-7,3,3,7,-5
1628231401.3041277,-3,-3,-11,-3,4,0,0,-5
1628231401.3051233,-1,-2,-2,-4,-2,3,6,-8
1628231401.3110547,2,6,0,1,1,-2,-3,2
1628231401.3123548,12,20,16,5,0,-12,-9,9
1628231401.3275003,8,8,9,7,1,0,-7,7
1628231401.328406,2,-2,-1,-6,-7,-1,1,0
1628231401.3301668,6,-3,4,5,-2,-8,-4,-4
1628231401.330997,-9,-6,-2,-3,-1,0,0,-1
1628231401.3418198,-7,-5,4,-6,-4,7,4,-8
1628231401.3428478,-1,0,-1,-6,-4,3,2,-4
1628231401.3486605,-4,-6,-6,-8,-3,6,6,-10
1628231401.349897,-8,-11,-7,-4,5,17,10,-12
1628231401.3643117,-7,-4,-6,1,2,5,2,-3
1628231401.3655295,12,4,12,10,4,-10,-6,4
1628231401.3789456,1,2,3,-2,-3,-3,-9,-1
1628231401.3801851,2,-3,-2,-1,-5,0,-2,0
1628231401.387395,19,17,11,8,-6,-21,-6,9
1628231401.3882537,4,5,4,-2,-7,-11,-7,1
1628231401.3898242,-2,5,3,5,-3,6,-1,-2
1628231401.391302,2,0,1,1,-6,-5,-3,8
1628231401.4029148,1,3,1,-3,-6,-4,-3,1
1628231401.4048002,-24,-28,-19,-11,13,24,9,-13
1628231401.4098635,-3,3,-10,-6,4,-2,2,-9
1628231401.4118876,4,7,3,7,4,-9,-3,4
1628231401.42541,-5,-3,-12,-4,0,4,-2,-8
1628231401.4273057,-4,-1,-5,5,6,7,-2,0
1628231401.4324546,18,27,18,5,-10,-24,-5,13
1628231401.4347377,5,0,7,2,-7,-3,-4,8
1628231401.4480238,-5,-10,-3,-2,5,2,1,-3
1628231401.449447,7,2,8,6,-3,-7,2,5
1628231401.4516876,2,-1,0,2,-2,0,-3,2
1628231401.4528775,-22,-24,-19,-9,5,22,10,-17
1628231401.4617958,-5,-1,-6,-5,5,3,4,-8
1628231401.4786155,3,1,1,-9,1,-8,-1,1
1628231401.4820518,-7,-4,-11,-12,4,-1,4,-2
1628231401.4833765,1,-2,-4,-3,-1,0,-3,-6
1628231401.4932537,23,29,21,12,-12,-21,-4,20
1628231401.49558,2,1,4,0,-6,-5,-7,3
1628231401.4999013,-6,-9,1,4,8,11,5,1
1628231401.501376,-6,-5,-10,-7,-3,7,2,-9
1628231401.5104825,-5,-2,-3,-5,-2,2,-1,-1
1628231401.5182312,-18,-22,-15,-6,2,13,3,-14
1628231401.5304005,-3,-1,-6,-2,-1,0,-4,-7
1628231401.5320244,4,10,5,-5,-5,-7,-5,1
1628231401.5342808,10,5,13,8,2,-5,2,11
1628231401.5357678,-2,4,-3,-2,-3,-5,1,1
1628231401.5385683,20,16,17,4,-6,-23,-12,15
1628231401.5412428,5,1,4,3,0,-6,1,7
1628231401.5441773,-16,-18,-6,-6,1,11,3,-12
1628231401.5452485,-7,-3,-9,-1,3,6,-1,-15
1628231401.5516772,-5,-9,-5,3,-2,6,4,0
1628231401.5532537,-7,-11,-8,-8,0,3,5,-9
1628231401.5678577,1,2,-5,-4,-3,1,-4,-1
1628231401.569338,10,11,2,2,0,-8,-2,7
1628231401.5721004,7,7,10,1,-3,-3,0,8
1628231401.5735,4,2,-6,-2,-3,-5,-1,-3
1628231401.5816107,14,7,2,-3,-7,-15,-9,7
1628231401.5828526,3,1,-2,-2,3,2,-2,4
1628231401.5883942,-16,-22,-14,0,-1,8,2,-8
1628231401.5894966,-1,-2,-6,-1,6,1,-5,0
1628231401.6042168,-3,-1,-6,2,-2,3,-1,0
1628231401.6053154,-9,-2,-5,-5,-3,8,4,-7
1628231401.61144,1,7,3,0,-4,-7,-2,5
1628231401.6131475,7,7,6,-1,-5,-10,-3,9
1628231401.6276379,0,-3,3,-1,-3,0,-3,5
1628231401.629099,6,7,5,4,-2,-2,-2,-2
1628231401.632836,8,5,0,1,2,-6,-5,0
1628231401.6337767,-3,-2,0,1,7,9,2,-2
1628231401.6408575,-11,-9,-10,-1,6,8,4,-5
1628231401.641834,6,7,3,1,-2,-9,-5,0
1628231401.6497784,-1,-3,-5,-4,1,1,3,-1
1628231401.651035,-7,-6,-8,1,-2,0,0,-4
1628231401.6639354,2,-1,6,-2,-10,-10,-1,2
1628231401.6648445,9,10,10,-1,-5,-11,1,6
1628231401.670901,-7,-7,-1,-6,-3,4,2,-5
1628231401.6718254,3,2,5,5,-3,-10,-1,5
1628231401.687308,5,9,6,1,0,-3,-5,3
1628231401.688236,-11,-13,-8,-6,2,5,0,-4
1628231401.6900883,1,-3,-5,0,-1,2,-1,-6
1628231401.6909523,8,10,4,3,-8,-6,-1,2
1628231401.7019262,-4,-4,-5,0,4,3,-7,-5
1628231401.7030134,-13,-8,-10,1,2,17,5,-7
1628231401.7097983,-2,-5,-4,-1,4,8,4,-7
1628231401.7108405,-3,2,-1,-3,-2,-3,-5,-4
1628231401.7250905,-5,-8,-5,-3,0,4,2,-7
1628231401.7270033,6,0,7,3,-1,-8,1,7
1628231401.732107,5,15,11,7,2,-18,-3,7
1628231401.7340298,14,10,6,5,-2,-11,-3,8
1628231401.7501588,0,0,-1,-4,-1,-5,-3,2
1628231401.7532525,7,10,5,2,-7,-9,-7,8
1628231401.7579613,1,5,2,3,-6,-1,-2,0
1628231401.759757,-25,-33,-19,-6,15,23,6,-13
1628231401.7638943,-11,-2,-20,-10,7,13,3,-24
1628231401.7668068,1,-5,-2,-3,2,-3,1,-1
1628231401.7714164,-5,-6,-11,-5,3,5,2,-8
1628231401.7727525,-1,0,3,2,-1,5,-3,2
1628231401.7843356,19,23,15,6,-5,-24,-7,15
1628231401.7852802,14,10,22,12,-7,-13,-8,19
1628231401.7909868,1,5,7,1,-9,-2,-2,1
1628231401.7920828,4,7,12,1,-12,-10,-5,13
1628231401.8106127,-4,1,0,2,-3,1,-1,-1
1628231401.812185,-30,-31,-23,-10,3,24,5,-20
1628231401.815037,-9,-6,-19,-4,15,8,8,-17
1628231401.8163092,-1,-6,-5,-3,2,-1,-6,-3
1628231401.8207936,-4,-3,-9,-9,5,10,8,-10
1628231401.821794,6,1,-5,0,0,-2,-1,1
1628231401.8310044,19,33,23,6,-10,-20,-11,11
1628231401.8333175,14,9,18,11,-10,-9,-1,12
1628231401.8447676,2,-1,0,-5,-7,-3,-4,1
1628231401.8462434,7,2,2,-6,-8,-7,-11,7
1628231401.851489,0,-8,-5,-2,0,6,7,2
1628231401.852859,-21,-27,-21,-7,7,19,-1,-13
1628231401.8684597,-5,-3,-12,-8,5,5,9,-10
1628231401.8705575,-2,-5,-1,3,4,0,0,-1
1628231401.8747747,-7,-5,-8,-6,4,5,2,-3
1628231401.8767745,0,8,4,-5,-7,-4,-3,2
1628231401.8833644,17,23,15,11,-10,-18,-8,15
1628231401.885598,6,7,10,7,-6,-6,-5,13
1628231401.8911045,5,0,-1,3,-1,-1,-6,2
1628231401.8931992,6,0,3,1,-3,-2,-4,-5
1628231401.9054925,-5,-9,-4,-2,7,7,-1,-3
1628231401.907516,-10,-9,-7,3,5,12,8,-10
1628231401.9123435,-7,-6,-10,-5,-4,4,8,-7
1628231401.9145832,0,-1,-8,0,4,4,2,-3
1628231401.928735,1,-2,0,-4,-3,5,5,-2
1628231401.9311035,3,5,1,1,-2,-3,-6,1
1628231401.9346402,15,11,8,1,-9,-16,-7,9
1628231401.9365804,4,6,5,3,-2,-5,-7,5
1628231401.9426894,-3,-3,-5,3,-1,-3,0,-2
1628231401.9450228,2,-1,2,0,-1,-8,-5,6
1628231401.9511685,-3,-6,-5,-6,-2,-1,-2,4
1628231401.9530547,-3,-1,3,6,-3,3,7,-2
1628231401.9654393,1,-3,-4,-1,1,2,2,-2
1628231401.9673853,-7,-4,-6,-6,-2,3,-1,-8
1628231401.9719477,-6,-12,-11,1,10,15,2,-10
1628231401.9737825,-7,-3,-13,-2,4,4,2,-7
1628231401.9892063,12,10,6,0,3,-15,-5,6
1628231401.991831,5,2,1,3,2,-2,-3,0
1628231401.9963727,-5,-1,0,-1,-2,-3,1,-5
1628231401.9985,18,21,13,6,-6,-20,-7,12
1628231402.0021045,3,3,9,7,-7,-3,2,4
1628231402.0038393,0,-1,-3,-3,-8,1,5,-6
1628231402.0109632,2,1,2,2,-6,-3,-4,7
1628231402.0131214,-2,0,2,-4,-5,1,4,2
1628231402.0256739,-20,-30,-19,-10,13,21,11,-19
1628231402.0280135,-2,-1,-9,-3,7,6,2,-12
1628231402.0321815,4,4,1,0,8,-1,-6,7
1628231402.0342572,-4,-7,-11,-8,-3,6,2,-7
1628231402.0484135,-6,-4,-2,-5,1,4,0,0
1628231402.050817,19,30,21,7,-13,-25,-5,10
1628231402.0546782,3,3,8,6,-2,1,-5,4
1628231402.0564926,-5,-5,-1,2,4,4,1,0
1628231402.0711277,8,1,7,-1,-16,-2,-11,3
1628231402.073069,2,-4,-4,-1,0,2,-4,4
1628231402.076951,-28,-30,-20,-10,8,15,6,-21
1628231402.0792322,2,-7,-5,-2,6,4,0,-6
1628231402.085331,6,4,2,0,-1,-5,-1,-1
1628231402.087209,-4,-3,-9,-6,7,-1,2,-4
1628231402.092571,0,-3,-4,1,3,0,-1,-1
1628231402.0947886,25,27,18,9,-4,-19,-7,19
1628231402.1083343,-1,3,1,6,-10,-4,-6,5
1628231402.1103497,-8,-13,-5,-4,-4,13,-3,-2
1628231402.1149893,-4,-3,-7,-6,5,6,3,-8
1628231402.1171556,-5,-4,-3,0,-4,5,0,-3
1628231402.131389,-20,-21,-15,-6,6,10,4,-16
1628231402.1335561,5,3,3,-7,-3,-4,1,-3
1628231402.1371686,9,13,2,-4,-9,-8,-7,1
1628231402.1392217,9,5,13,3,-2,-8,1,10
1628231402.1456015,6,7,-4,-2,-2,-2,1,3
1628231402.1477566,13,20,15,8,-4,-15,-3,15
1628231402.152025,4,-1,8,2,-1,-7,-5,6
1628231402.1538734,-11,-16,-14,-5,-1,5,1,-11
1628231402.1678538,-5,-5,-10,-2,9,7,1,-13
1628231402.1698058,-4,-4,-1,-1,2,0,-4,-5
1628231402.1751673,-7,-6,-10,-15,-10,6,5,-12
1628231402.177205,-2,-1,-3,-6,-1,-1,0,-4
1628231402.19103,3,5,1,0,0,-4,1,4
1628231402.192863,7,4,8,2,-2,-4,-4,6
1628231402.1962476,2,5,3,4,3,-1,1,2
1628231402.1981325,7,11,6,5,3,-11,-6,9
1628231402.2053201,5,1,-1,-2,-1,0,-2,2
1628231402.207182,-10,-15,-8,2,9,6,4,-7
1628231402.2123463,1,-2,-6,3,6,1,2,-8
1628231402.2144403,-3,-8,-1,-3,-1,7,1,-3
1628231402.2280753,-9,-2,-7,-2,-7,9,7,-12
1628231402.2303743,0,3,-6,-7,-3,-5,-4,-2
1628231402.234883,2,3,4,-1,-4,-10,-1,4
1628231402.2372189,0,0,1,-3,-9,1,2,0
1628231402.2512648,2,1,9,2,0,-7,-3,7
1628231402.253243,11,6,8,4,0,-10,-8,3
1628231402.2565756,-4,-7,-5,-2,-3,8,-1,-6
1628231402.258421,-16,-6,-10,-1,5,3,2,-7
1628231402.2654881,5,7,-1,5,4,-8,-2,-2
1628231402.2674634,-11,-4,-7,-4,-3,0,2,0
1628231402.271897,0,-12,-5,0,0,4,2,-7
1628231402.273805,4,8,4,1,-4,-4,1,2
1628231402.2879457,7,6,3,5,1,-9,-6,6
1628231402.2898698,-6,-7,-3,-4,0,7,1,-2
1628231402.294654,7,2,6,4,-2,-7,1,3
1628231402.2966871,10,3,5,0,5,-9,-14,1
1628231402.3113024,-6,-9,-14,-7,3,6,0,-8
1628231402.3135414,-8,-3,-4,0,2,10,6,-4
1628231402.317444,8,14,5,2,-4,-7,-1,3
1628231402.3194606,0,-3,-1,0,3,7,2,-4
1628231402.3252878,-11,-8,-7,-2,4,14,6,-6
1628231402.327103,-2,-8,0,0,7,8,0,-6
1628231402.3320093,-1,3,3,-2,-3,-4,-4,1
1628231402.3339782,-7,-9,-6,-5,3,3,-1,-5
1628231402.348187,7,4,5,-3,-9,-3,2,3
1628231402.3502858,13,12,5,5,-9,-15,-8,10
1628231402.3546681,2,10,4,2,1,-12,-5,8
1628231402.3564644,2,5,4,3,-1,0,-3,-2
1628231402.3714604,6,9,15,1,-2,-8,-3,9
1628231402.3734813,-1,-4,-6,-4,1,3,2,4
1628231402.3769336,-23,-28,-16,-9,1,26,8,-15
1628231402.3791351,-13,-6,-23,-12,9,13,5,-25
1628231402.385854,-1,-1,-4,-3,4,-4,-7,-4
1628231402.3877661,-5,-4,-9,-6,-1,1,-2,-11
1628231402.3919532,2,4,3,0,5,0,-2,-3
1628231402.3937602,23,27,14,6,-9,-22,-7,11
1628231402.4084501,14,9,20,5,-14,-10,-3,18
1628231402.4108398,2,7,2,1,-2,-1,-2,-8
1628231402.41561,8,5,11,4,-10,-5,2,14
1628231402.4175754,-1,-8,3,1,-2,-4,4,-3
1628231402.4315212,-28,-34,-26,-13,8,28,1,-20
1628231402.4335225,-12,-3,-14,1,9,10,10,-15
1628231402.4370625,-1,-5,-5,0,1,1,-3,-2
1628231402.43911,-7,-4,-8,-8,1,4,-2,-7
1628231402.44548,4,5,-1,-1,-1,-6,-3,2
1628231402.4474998,21,25,15,6,-8,-24,-7,13
1628231402.4526258,10,7,14,11,-7,-10,-10,19
1628231402.4548428,3,0,5,3,1,-2,3,5
1628231402.4680767,9,3,9,-1,-4,-12,-5,7
1628231402.470036,-4,-7,0,-2,1,0,-1,1
1628231402.4760828,-22,-25,-18,-4,7,19,5,-16
1628231402.4783065,-7,-5,-12,-7,5,6,6,-10
1628231402.4911587,-2,-6,-7,2,7,-2,2,-5
1628231402.4938924,-5,-4,-5,-2,3,5,7,-5
1628231402.4986358,9,11,4,0,1,-6,-2,-1
1628231402.5016255,14,17,10,6,-5,-17,-6,7
1628231402.5064805,7,9,12,11,-7,-4,-9,11
1628231402.5087216,4,1,1,2,0,-2,2,7
1628231402.513444,4,-1,-1,1,-6,-2,-3,0
1628231402.5155678,-7,-4,-7,0,6,2,-2,-1
1628231402.528244,-11,-6,-8,-2,2,12,4,-8
1628231402.5305326,-5,-2,-8,0,4,5,11,-7
1628231402.5350168,-7,-2,-6,-7,-1,0,-4,-7
1628231402.5369189,-5,-1,-5,-2,1,4,3,-5
1628231402.5503323,1,3,-4,3,4,1,-2,1
1628231402.5523264,11,12,9,2,-2,-17,-8,2
1628231402.5587463,5,7,9,4,0,-5,-7,10
1628231402.5606723,2,-5,8,-2,-5,1,-1,3
1628231402.565405,3,1,3,1,-3,-4,-2,7
1628231402.567326,-5,-9,-3,-5,4,-1,-3,-2
1628231402.5718133,-7,-6,-7,0,-5,0,2,-3
1628231402.573537,-3,-3,-5,-4,-1,0,1,-3
1628231402.589194,-8,-8,-4,-2,-2,0,2,-8
1628231402.5913177,-8,-10,-11,-6,3,14,5,-9
1628231402.5946343,-2,-4,-1,4,12,6,5,-3
1628231402.5965831,10,12,6,-1,3,-10,-6,3
1628231402.6124125,-1,-1,1,0,2,-1,-10,2
1628231402.6155,0,-2,-2,-7,-1,3,0,3
1628231402.6196735,11,20,14,9,-4,-19,0,13
1628231402.621506,4,5,5,1,-8,-7,1,5
1628231402.6329718,-5,0,2,4,0,-3,4,-1
1628231402.6350832,1,2,5,1,-10,-3,-3,3
1628231402.637598,-2,-5,-3,-6,-5,-6,-2,-4
1628231402.6394005,-24,-28,-24,-9,5,23,4,-16
1628231402.6497126,-2,1,-10,-2,3,1,3,-11
1628231402.6516864,10,6,-1,1,0,-7,-2,3
1628231402.6543481,-6,-4,-11,-12,1,2,-4,-6
1628231402.6566987,-2,0,-7,-1,-4,2,-4,-7
1628231402.670584,23,29,17,5,-10,-25,-7,11
1628231402.6722991,0,3,8,5,-6,-8,-6,6
1628231402.6747096,0,-3,-1,3,-6,6,6,1
1628231402.6765428,6,0,11,-1,-11,-6,1,5
1628231402.6929352,2,0,0,1,0,0,-4,3
1628231402.694832,-24,-28,-23,-12,10,23,11,-20
1628231402.6975694,-5,0,-6,-6,-2,-4,1,-12
1628231402.6993542,5,4,1,-6,-6,-7,-3,0
1628231402.7096636,-4,-3,-12,-9,4,0,6,-2
1628231402.7119765,-5,4,-3,-1,1,0,-3,-4
1628231402.7156599,26,30,19,7,-9,-19,-10,14
1628231402.7178595,5,4,12,6,-5,-1,-7,5
1628231402.7314339,-8,-14,-5,-5,-4,11,-2,-9
1628231402.7335124,-6,-3,-7,-6,-5,8,1,-7
1628231402.7363038,-5,-5,-2,0,0,6,0,-1
1628231402.7383902,-20,-16,-15,-4,11,15,12,-11
1628231402.7531066,0,1,0,-1,4,-2,5,-5
1628231402.7551413,5,9,4,3,5,-13,-1,3
1628231402.7575824,9,6,11,2,1,-9,-2,-1
1628231402.7595415,-1,0,-3,1,2,-3,-3,3
1628231402.768594,17,22,15,1,-9,-19,-11,6
1628231402.77054,0,4,5,6,-4,-4,-4,5
1628231402.774494,-13,-16,-8,-5,-4,8,2,-7
1628231402.7764904,-8,-5,-13,2,10,6,2,-17
1628231402.7907078,-3,-2,-6,0,1,7,-1,-4
1628231402.7926276,-7,-5,-5,-7,-2,5,1,-8
1628231402.7957401,-3,1,-4,-4,2,2,-1,-2
1628231402.7980235,3,4,6,1,-4,-6,0,6
1628231402.8136413,5,5,11,1,-10,-2,1,10
1628231402.8158247,5,5,4,-2,-5,0,-1,-3
1628231402.8193576,8,10,6,0,-1,-14,-8,10
1628231402.8212883,2,1,0,-2,2,-4,-3,2
1628231402.8288507,-16,-20,-12,-6,4,12,2,-8
1628231402.8310342,-2,-3,-6,-1,-4,-1,0,-4
1628231402.8345797,-3,-9,-1,1,0,5,2,2
1628231402.836382,-8,-7,-7,-9,-8,2,7,-8
1628231402.8510087,0,-1,1,-2,-3,-9,5,-2
1628231402.8531237,11,8,0,2,-6,-5,-2,4
1628231402.8558388,3,2,4,2,1,0,-3,4
1628231402.8576746,4,7,0,2,-4,-6,-3,1
1628231402.873113,12,9,6,0,1,-10,-6,8
1628231402.8753178,-3,-6,-5,-7,0,1,-3,-4
1628231402.8781128,-13,-15,-10,-3,3,6,5,-4
1628231402.8802543,3,7,1,0,-2,-5,-1,0
1628231402.8887544,-8,-2,-7,-1,-2,1,3,-1
1628231402.8907702,-4,-8,-7,2,-1,5,7,-7
1628231402.8949044,5,4,2,-1,-6,-11,-3,3
1628231402.8970516,4,9,8,2,-1,-10,-7,5
1628231402.9104679,-5,-8,-1,-1,2,5,1,1
1628231402.9124725,3,2,2,-3,-2,-8,-4,5
1628231402.916504,8,7,1,3,3,-11,-6,0
1628231402.918754,-7,-10,-10,-5,5,11,3,-7
1628231402.9330127,-3,-6,-8,-3,3,2,-2,-4
1628231402.9353533,6,11,5,6,4,-9,6,1
1628231402.9382024,-3,-4,-8,-1,-4,6,-1,-7
1628231402.940205,-11,-14,-9,0,6,16,7,-9
1628231402.9491518,0,-2,2,-5,-7,5,-4,-1
1628231402.9511228,2,3,1,-6,-5,-5,-6,3
1628231402.9545066,-4,-9,-5,-5,4,5,-1,-8
1628231402.956373,5,4,4,0,-2,-10,1,2
1628231402.9698887,12,13,8,6,-2,-12,-6,4
1628231402.9716609,-1,7,-1,-1,4,-13,-1,-3
1628231402.9771469,2,2,-1,-3,-4,-7,3,-1
1628231402.97906,5,10,7,-2,-7,-10,-4,12
1628231402.9928832,-5,-6,-2,-5,-3,-4,0,-5
1628231402.9956138,-23,-30,-14,-6,7,26,6,-14
1628231402.9992464,-19,-6,-24,-9,9,13,4,-23
1628231403.0009935,1,-3,0,5,5,3,-2,-1
1628231403.007051,-5,-7,-10,-5,3,2,4,-8
1628231403.0090246,4,0,2,-2,-5,-3,-5,-1
1628231403.0156069,16,24,16,1,-14,-23,-4,10
1628231403.0177915,16,10,18,7,-11,-14,-7,15
1628231403.0303688,-1,2,4,0,-5,-3,-1,-3
1628231403.0322168,3,2,13,3,-10,-7,-9,6
1628231403.0372286,2,-1,-3,-1,-6,-2,4,6
1628231403.0391655,-29,-33,-23,-9,10,24,9,-17
1628231403.052931,-12,-7,-19,-4,12,10,8,-23
1628231403.0549135,-2,-4,0,1,3,0,-1,-6
1628231403.0575123,-5,-4,-6,-10,0,3,5,-9
1628231403.0594938,1,1,-5,-6,-6,-6,-2,1
1628231403.067318,19,25,15,5,-10,-19,-9,9
1628231403.0692816,16,8,14,16,-5,-9,-5,23
1628231403.0749388,-2,4,5,1,0,2,2,6
1628231403.0770295,10,2,7,-1,-8,-11,-10,5
1628231403.089852,-3,-7,0,-2,-7,-1,0,-2
1628231403.0918713,-21,-23,-20,-12,1,20,10,-16
1628231403.097882,-7,-6,-15,-3,10,5,9,-15
1628231403.0999334,-4,-3,-10,1,5,3,1,-6
1628231403.1129084,-2,-3,-12,-2,8,9,4,-9
1628231403.1152365,4,8,1,-2,1,-5,-5,7
1628231403.11826,19,25,12,6,-6,-15,-10,8
1628231403.1200473,11,6,13,4,-11,-7,-8,15
1628231403.1275337,-2,2,0,-2,-2,-5,2,-3
1628231403.1303244,4,1,-4,-3,-4,-5,-7,1
1628231403.1345575,-3,-11,-8,-1,3,6,-7,-4
1628231403.1364858,-16,-11,-9,-5,1,10,7,-8
1628231403.1498215,-4,-2,-9,-3,3,2,5,-4
1628231403.1519399,-2,-5,-5,-6,0,1,-2,-9
1628231403.1569777,0,-3,-4,0,5,3,5,-3
1628231403.1589134,8,2,-2,-1,3,0,0,3
1628231403.172833,14,18,10,3,-2,-16,-11,10
1628231403.1749873,6,5,7,3,-3,-6,-9,9
1628231403.1778736,1,3,6,5,4,-7,-2,0
1628231403.1798198,-1,0,-1,1,-1,-8,-2,7
1628231403.1873548,-7,-8,-2,-3,0,2,6,-1
1628231403.1891341,-7,4,1,-1,-3,4,4,-7
1628231403.1944475,-6,-4,-7,-8,-1,3,2,-3
1628231403.1963787,-7,-5,-10,-2,5,-3,-1,-4
1628231403.209887,-4,-5,-9,-9,-1,7,2,-9
1628231403.2117307,-1,-2,-1,1,-6,7,9,-1
1628231403.217321,10,10,8,2,-5,-10,-7,2
1628231403.219193,5,6,6,4,0,-1,-9,-2
1628231403.233046,-1,-3,-4,3,2,3,-5,5
1628231403.2351668,9,8,12,5,-2,-15,-5,13
1628231403.238063,4,5,4,3,-3,-5,-2,7
1628231403.2400725,3,-3,-4,-8,-7,2,2,-9
1628231403.2474434,4,1,5,-3,1,-2,0,4
1628231403.249424,1,-4,-1,0,1,-1,-5,0
1628231403.2551649,-25,-28,-21,-6,12,23,6,-15
1628231403.2571738,-5,-4,-12,-5,4,3,1,-10
1628231403.2700145,6,6,5,3,-1,-7,-5,1
1628231403.2731686,-1,-3,-7,-7,-6,3,-6,-6
1628231403.2770946,-3,-6,-3,5,7,3,1,-1
1628231403.2789688,21,21,18,9,-8,-20,-10,14
1628231403.292987,7,1,7,4,-8,-5,-1,3
1628231403.2949874,0,0,0,3,2,0,1,-6
1628231403.2978551,8,3,11,0,-10,-6,-3,7
1628231403.2997186,-1,1,4,-5,-3,-3,-3,-4
1628231403.3073776,-18,-28,-20,-11,6,22,11,-16
1628231403.3096085,-4,0,-12,-3,1,-3,6,-12
1628231403.3148384,7,9,0,-8,-2,-7,0,-4
1628231403.3167605,-10,-6,-11,-6,8,3,-1,-7
1628231403.3303092,0,-6,-4,0,0,1,-2,-5
1628231403.3323276,21,29,21,6,-5,-27,-12,15
1628231403.3371303,5,1,9,5,-8,-3,-7,6
1628231403.339277,-6,-6,1,-1,0,3,3,-5
1628231403.353153,-9,-2,-2,-2,3,6,-1,-5
1628231403.3552148,-3,-9,-4,-4,1,4,4,-2
1628231403.357879,-23,-24,-19,-11,2,13,7,-15
1628231403.3597806,2,4,-5,0,-1,-1,6,-5
1628231403.3670745,4,7,-1,-1,-3,-8,-5,5
1628231403.3689497,8,4,4,-5,-2,-6,2,4
1628231403.3747861,6,4,-3,-3,0,-5,1,1
1628231403.3767412,22,23,23,8,-9,-16,-10,18
1628231403.389664,6,2,2,9,-5,0,1,11
1628231403.3915403,-10,-15,-3,2,0,15,4,-8
1628231403.397071,-6,-5,-13,-1,3,7,0,-13
1628231403.398915,-6,-3,0,-1,-8,4,-2,-3
1628231403.412851,-13,-8,-9,-9,2,6,4,-12
1628231403.415283,-4,3,-1,-3,-1,-1,5,-9
1628231403.418299,7,6,4,-2,-3,-8,0,2
1628231403.4201987,8,5,11,3,-3,-6,-4,3
1628231403.427497,-2,5,-2,-3,-6,-4,-1,-6
1628231403.4293747,14,9,12,4,-6,-7,-9,12
1628231403.4348633,4,5,4,1,-2,1,-9,2
1628231403.4367874,-8,-19,-15,-2,7,16,5,-9
1628231403.449909,-5,-4,-9,-2,6,2,-1,-5
1628231403.4519129,-3,-3,-8,2,6,9,5,-4
1628231403.4570255,-5,-5,-6,-6,-4,4,8,-9
1628231403.4588778,5,0,-5,-2,-8,-2,-3,2
1628231403.4732828,4,6,4,-1,-5,-9,1,4
1628231403.475375,3,0,5,3,-3,0,-3,6
1628231403.4780946,2,4,8,2,1,-3,-2,3
1628231403.4803762,13,11,8,1,-4,-15,-6,1
1628231403.487465,1,-4,3,-4,-2,2,-1,3
1628231403.4892921,-11,-12,-4,-4,1,13,0,-5
1628231403.4945083,1,2,-4,2,0,-1,0,-1
1628231403.4968262,-12,-7,0,5,8,2,2,2
1628231403.5098813,-3,-7,-5,-3,2,8,7,-4
1628231403.5116925,3,6,1,-5,-3,-7,-5,6
1628231403.5175238,5,4,3,-4,-11,-8,-7,3
1628231403.519621,-3,-6,-1,-3,-1,7,1,1
1628231403.5329404,1,2,0,3,-1,-5,-7,2
1628231403.5350277,4,6,-1,2,3,-8,-2,3
1628231403.53785,-2,-10,-10,-5,-6,4,1,-7
1628231403.5398645,-6,-6,-5,1,1,6,3,-7
1628231403.5478718,8,12,6,3,-6,-8,-1,4
1628231403.5502396,-2,-6,-3,-7,-3,-2,-1,-2
1628231403.5547583,-11,-4,-6,-3,4,12,6,-6
1628231403.5566976,6,4,6,1,-3,-7,-5,4
1628231403.5701017,7,10,2,0,-4,-5,-4,7
1628231403.57201,-6,-9,-4,-1,3,6,1,-3
1628231403.577313,6,5,7,1,-2,-8,-2,5
1628231403.5792105,6,7,5,-1,-6,-13,-5,1
1628231403.5929582,-4,-6,-10,-7,4,-4,0,-2
1628231403.5947232,0,0,-4,-6,-6,-7,-2,-8
1628231403.597312,5,9,1,3,-1,-9,-4,4
1628231403.5991073,-6,-8,-6,-2,-1,-3,6,-8
1628231403.607425,-18,-24,-13,-5,10,16,2,-12
1628231403.609413,-17,-6,-14,-7,-1,12,6,-14
1628231403.6149635,3,-6,-1,-7,-3,-6,-3,1
1628231403.6171284,-6,-3,-9,-6,2,4,2,-7
1628231403.6300592,5,9,5,1,-4,-1,-5,3
1628231403.632167,15,21,7,6,-7,-22,-10,9
1628231403.6373084,15,8,21,6,-5,-12,-1,4
1628231403.6395488,-3,6,-1,-5,-4,-1,2,-3
1628231403.6529431,8,9,14,1,-5,-5,-3,8
1628231403.6550164,4,-3,-7,-2,-2,2,-2,-1
1628231403.6576195,-24,-30,-27,1,7,34,7,-10
1628231403.6594722,-12,-7,-21,-2,17,15,4,-22
1628231403.6670926,0,0,1,4,3,2,0,-4
1628231403.6689987,-4,-4,-12,-10,5,0,8,-12
1628231403.674792,-3,-2,-5,-1,0,-7,-1,0
1628231403.6767137,17,25,16,5,-14,-23,-7,14
1628231403.689824,15,11,15,5,-22,-12,-4,21
1628231403.6917188,4,3,5,5,-1,-5,1,1
1628231403.6985025,6,3,8,-3,-5,-7,-4,13
1628231403.7005315,-6,-4,3,0,-5,3,3,2
1628231403.713561,-23,-38,-21,-9,2,15,2,-16
1628231403.7158668,-9,-5,-14,-7,11,5,9,-17
1628231403.718909,-4,-6,-10,-2,5,5,1,-4
1628231403.7208822,-2,-3,-13,-5,8,5,5,-8
1628231403.727412,-1,8,2,0,0,-2,1,-4
1628231403.7301154,18,24,18,7,-8,-20,-4,12
1628231403.7346923,9,11,17,5,-9,-10,-7,16
1628231403.7365787,4,2,2,2,-1,-9,4,0
1628231403.749957,1,5,2,2,-3,-1,-8,2
1628231403.7519982,-7,-10,-6,-2,1,2,0,0
1628231403.7573335,-14,-17,-13,-7,-5,13,6,-11
1628231403.7592156,-6,-5,-11,-3,2,5,7,-10
1628231403.7744198,-4,-9,-5,-5,4,3,0,-1
1628231403.7764492,1,-3,-5,-5,1,2,2,-8
1628231403.7798219,-1,8,3,1,-4,-8,-1,1
1628231403.7820694,13,18,7,4,-5,-17,-9,9
1628231403.7880938,7,7,10,7,-3,-7,-6,8
1628231403.7900634,1,0,-3,0,-7,-4,-3,3
1628231403.7948463,1,1,0,1,1,-4,-7,-3
1628231403.7972374,0,-6,-6,-7,-2,1,-2,-3
1628231403.809871,-8,-5,-6,0,-6,2,2,-9
1628231403.812141,-3,-3,-5,-5,-3,3,5,-5
1628231403.8171933,-4,-2,-1,-1,-3,0,0,-7
1628231403.819062,-6,-4,-2,-7,0,10,7,-10
1628231403.8330083,6,-1,-4,-4,-3,4,3,0
1628231403.8351204,11,14,10,7,-4,-18,-9,5
1628231403.8379717,4,4,3,0,0,-4,-5,3
1628231403.8398695,0,-3,-2,-1,-4,0,-5,-2
1628231403.8479571,9,7,2,0,-2,-12,-7,8
1628231403.8503306,2,4,-1,3,-1,-2,-4,4
1628231403.8547559,-1,0,1,0,-4,5,3,0
1628231403.8567297,-2,-1,-1,-4,-9,3,0,3
1628231403.8698368,-3,1,-2,-3,2,-1,3,-11
1628231403.8721614,-13,-20,-14,-5,6,21,10,-12
1628231403.8770678,-9,-5,-11,-1,3,3,2,-7
1628231403.8796897,5,4,2,1,3,-7,-5,6
1628231403.8919973,-1,-1,-4,-4,-2,-1,-7,-1
1628231403.8938997,-2,-3,1,2,1,6,0,-5
1628231403.9002552,19,24,15,8,-12,-25,-15,9
1628231403.9023752,5,1,15,1,-6,2,-3,6
1628231403.9073515,-6,-3,2,1,-6,0,4,-3
1628231403.909137,1,2,9,-2,-5,-2,1,4
1628231403.9154723,0,3,-2,-4,-3,-2,-4,-2
1628231403.9175193,-24,-34,-20,-6,14,24,10,-13
1628231403.9303024,-7,0,-6,0,8,-1,2,-15
1628231403.9323218,8,-2,-1,2,2,-7,-3,4
1628231403.9373477,-5,-8,-12,-5,8,4,6,-6
1628231403.939555,-3,-2,-3,3,3,1,-1,-4
1628231403.9524574,22,33,14,4,-9,-24,-6,17
1628231403.9545689,4,1,4,-1,-12,-3,-4,11
1628231403.960491,-6,-5,-2,-2,1,6,5,-2
1628231403.9623568,2,1,3,-4,-17,1,0,1
1628231403.9757895,1,-3,2,-5,-2,5,-2,1
1628231403.9778414,-24,-25,-17,-6,9,21,7,-12
1628231403.9808826,3,2,-4,0,1,-3,-2,-8
1628231403.983138,5,9,-2,-4,-1,-12,-3,2
1628231403.989564,-1,3,-4,2,1,-6,3,-2
1628231403.991522,-3,7,-2,-7,-4,-6,-4,-6
1628231403.9979231,18,28,22,4,-11,-16,-12,16
1628231403.9997263,7,0,6,4,-3,-7,-7,6
1628231404.012567,-10,-16,-7,-1,0,14,1,-2
1628231404.0148625,-9,-3,-11,-1,5,5,-3,-15
1628231404.020224,-4,-4,-4,-1,-4,6,5,4
1628231404.0222812,-15,-11,-9,-9,0,8,7,-12
1628231404.0360615,-7,-1,-3,-7,-8,-3,5,-5
1628231404.0381756,3,8,5,-9,-4,-10,-5,-1
1628231404.040932,9,3,12,5,-3,-6,1,6
1628231404.042928,1,5,-6,1,-3,-9,-2,-4
1628231404.0499897,9,8,12,8,-2,-11,-11,9
1628231404.0520742,2,1,0,-1,-7,-2,-3,7
1628231404.0570402,-19,-16,-10,-6,3,13,3,-7
1628231404.058912,-7,-4,-10,0,8,6,1,-7
1628231404.0724359,-1,-11,-3,2,-1,1,2,-3
1628231404.0745842,-7,-4,-12,-8,-7,7,7,-8
1628231404.0805078,-2,-3,-6,-11,-3,-3,1,0
1628231404.0825124,5,6,0,-3,-5,-3,-4,2
1628231404.095495,9,7,8,2,0,-2,-2,8
1628231404.0975137,2,4,1,-1,-3,-9,-5,-3
1628231404.1000614,12,9,5,5,-7,-12,-5,5
1628231404.102144,2,-3,0,-3,-1,2,1,-1
1628231404.110041,-11,-14,-13,-7,3,14,0,-12
1628231404.1119268,0,1,-3,2,2,0,1,1
1628231404.1178358,-1,-3,0,-7,0,3,1,-8
1628231404.1198971,-12,-3,-2,-4,-1,3,4,-5
1628231404.1322508,5,6,7,-3,-8,-9,-1,1
1628231404.1341474,5,5,4,1,-3,-9,-4,4
1628231404.1406128,-3,-5,-2,-1,-3,2,3,-2
1628231404.1424313,7,8,7,2,-6,-9,-2,8
1628231404.155796,8,8,3,-1,-3,-12,-6,3
1628231404.1577473,-5,-7,-6,0,7,6,1,-8
1628231404.160463,-7,-10,-11,-5,-3,2,0,-7
1628231404.1623955,6,10,1,-3,-3,-8,-5,-1
1628231404.1698077,-2,-1,-2,4,5,1,1,-3
1628231404.1716998,-4,-8,-2,-2,-3,2,2,-4
1628231404.1770084,8,2,3,2,-1,-5,-5,3
1628231404.178951,4,7,2,2,-2,-10,-1,5
1628231404.1922917,-5,-6,0,-1,2,7,-1,-5
1628231404.1942024,4,6,5,2,1,-2,0,3
1628231404.2003064,16,8,9,5,0,-9,-1,5
1628231404.202489,-7,-9,-10,-8,2,8,4,-8
1628231404.2155936,-5,-9,-3,1,-2,4,-1,-1
1628231404.2175176,8,10,2,-1,-9,-9,-9,5
1628231404.2213967,-6,0,-8,-3,-2,-1,1,0
1628231404.2232614,-11,-12,-12,-2,-2,15,4,-8
1628231404.2300274,-8,-8,-9,-6,4,13,5,-15
1628231404.231907,3,-1,-2,-4,-7,-6,-4,2
1628231404.2372923,-9,-11,0,-3,7,6,1,-8
1628231404.239453,5,4,4,-4,-7,-4,-4,5
1628231404.2524273,22,19,8,1,-10,-15,-9,11
1628231404.2545133,17,11,13,0,-3,-11,3,7
1628231404.2604227,-3,2,-3,-2,0,2,1,0
1628231404.2623775,8,6,5,2,-5,-9,-6,7
1628231404.2756205,-1,-3,0,-3,-8,-2,2,-4
1628231404.2774713,-21,-29,-18,-3,12,25,9,-21
1628231404.2801623,-12,-9,-22,-11,9,11,6,-26
1628231404.282257,-6,-5,0,-4,0,0,-3,-5
1628231404.2896888,-4,-2,-11,-7,2,-1,4,-8
1628231404.291647,2,1,2,1,0,-6,-1,-1
1628231404.2973185,20,26,14,6,-8,-18,-10,14
1628231404.2992194,13,10,16,8,-11,-14,-7,18
1628231404.3121612,-1,9,3,0,3,-5,-1,2
1628231404.3143568,3,1,8,5,-5,-4,-6,9
1628231404.3202565,0,-6,5,3,-2,5,3,1
1628231404.3221734,-23,-35,-20,-4,11,22,5,-16
1628231404.3355694,-7,-8,-17,-6,6,6,7,-16
1628231404.3378577,-2,-3,1,-2,1,5,4,4
1628231404.3407528,-6,-4,-12,-5,6,5,2,-8
1628231404.342634,-2,3,-4,-2,1,-11,-3,-4
1628231404.3496008,19,22,13,3,-3,-23,-13,9
1628231404.3516214,9,7,14,11,-10,-11,-9,19
1628231404.3569427,2,1,1,6,2,-9,-1,1
1628231404.358908,8,4,7,5,-3,-6,-3,8
1628231404.3724952,-1,-4,-7,0,0,3,-1,-8
1628231404.3743453,-21,-30,-21,-10,0,23,8,-13
1628231404.3803341,-7,-5,-9,-3,4,6,7,-13
1628231404.382563,-7,-6,-3,-1,4,8,6,0
1628231404.3953745,-4,-4,-3,-8,2,0,11,-5
1628231404.397625,4,5,-4,-5,-6,-3,-3,-2
1628231404.4005616,14,22,17,-1,-7,-22,-6,9
1628231404.402785,8,8,14,10,-3,-4,-9,13
1628231404.4097438,0,0,1,-2,-3,-1,2,5
1628231404.4116943,-1,1,3,2,0,-8,-6,-3
1628231404.417213,-5,-9,0,-9,-4,1,-4,-4
1628231404.4190881,-9,-7,-3,-2,-1,9,9,-12
1628231404.4322073,-7,-5,-7,-4,1,7,8,-8
1628231404.434462,-2,0,-2,-5,-1,1,3,-4
1628231404.440739,-2,-1,-6,-5,0,9,4,-6
1628231404.4427931,10,9,1,2,2,-4,-8,-2
1628231404.4555733,9,11,6,6,4,-9,-4,9
1628231404.4576056,4,4,5,5,0,-2,-4,9
1628231404.460088,0,0,2,0,-7,-5,-3,0
1628231404.4619467,2,-5,2,5,1,-5,-7,5
1628231404.4699903,-3,-5,-1,-2,-6,-2,-1,-4
1628231404.4720404,-8,0,0,1,-3,7,2,-6
1628231404.4771974,-4,-2,-4,-8,-10,1,0,-1
1628231404.4791265,-1,-3,-5,-5,0,5,1,-6
1628231404.492411,-11,-9,-11,-9,4,14,4,-6
1628231404.4944737,-6,0,-11,-6,2,5,0,-10
1628231404.5004013,11,13,1,2,0,-8,-6,5
1628231404.5025609,0,1,0,-7,-7,-2,-5,-3
1628231404.5159197,-3,4,-5,0,-6,3,-4,3
1628231404.5181077,22,20,13,11,-1,-19,-8,15
1628231404.5208495,6,6,9,4,-8,-9,-6,7
1628231404.5229876,-2,0,0,-5,-8,-2,3,-2
1628231404.5297503,2,3,6,0,-6,-4,-2,6
1628231404.531856,-1,-7,0,-1,0,-1,-1,4
1628231404.5377223,-21,-28,-23,-11,6,26,5,-20
1628231404.5397413,-3,3,-11,-2,5,2,5,-10
1628231404.5523787,6,3,5,0,-1,-5,-6,0
1628231404.554458,-7,-4,-13,-5,-3,3,-6,-9
1628231404.560149,-3,-1,-3,-5,-7,4,0,0
1628231404.5619364,22,29,22,11,-10,-21,-8,16
1628231404.5758193,8,2,10,5,-5,-2,-6,6
1628231404.5776463,-2,-2,-3,-4,-8,0,-1,-2
1628231404.5807323,7,1,6,-1,-4,-5,-4,6
1628231404.58293,-5,1,-1,-8,-6,-3,-3,-4
1628231404.5896854,-23,-33,-23,-11,2,23,9,-18
1628231404.59156,-4,-1,-3,-3,5,5,2,-7
1628231404.5976446,-2,0,-6,-2,5,-6,-2,3
1628231404.599749,-4,-4,-10,-11,3,-4,3,-3
1628231404.6121275,1,-1,-3,-4,-5,-4,-3,0
1628231404.6143754,23,28,19,8,-5,-20,-8,14
1628231404.6203852,5,5,2,8,-4,-3,-4,9
1628231404.622565,-6,-9,-5,-1,3,8,-1,-4
1628231404.635933,-8,-2,-9,-4,-1,7,4,-10
1628231404.6381416,0,-3,-3,8,5,2,1,1
1628231404.6407883,-18,-16,-13,-9,2,11,6,-15
1628231404.6426408,-1,-6,-8,-1,6,3,4,-2
1628231404.649641,9,8,-3,-2,-4,-11,-3,7
1628231404.6513627,7,5,10,-2,-6,-8,0,2
1628231404.6570568,0,0,1,6,5,1,-2,2
1628231404.658799,16,19,19,3,-11,-15,-7,11
1628231404.6723044,1,-1,6,2,0,-3,-3,2
1628231404.6744628,-15,-20,-13,-3,2,11,1,-8
1628231404.6804788,-8,-5,-12,-5,3,4,0,-11
1628231404.6828268,-2,-3,-5,1,-1,6,-4,0
1628231404.6954696,-6,-2,-7,-2,-1,4,0,-12
1628231404.6982155,1,1,1,0,0,1,4,-3
1628231404.701211,2,2,2,-1,-1,-5,-2,2
1628231404.7037067,7,7,10,0,-3,-5,-3,8
1628231404.7095194,-2,3,2,2,-1,0,4,0
1628231404.711305,14,10,13,0,-6,-21,-10,5
1628231404.717049,1,0,1,4,4,0,3,0
1628231404.718968,-13,-15,-14,-2,0,7,0,-6
1628231404.7329867,-4,-1,-8,0,6,1,0,-3
1628231404.7354028,-5,-9,-8,-3,0,1,1,-3
1628231404.7405138,-4,-1,-4,-3,-3,4,2,-7
1628231404.7426019,1,1,-1,0,-2,-2,2,-1
1628231404.755821,13,5,8,3,6,-5,0,3
1628231404.7578433,2,2,2,-3,-7,3,-4,2
1628231404.7605338,4,6,0,-2,-3,-8,-4,-4
1628231404.7626085,9,7,12,1,-4,-7,-4,1
1628231404.7695835,-1,-6,-4,-7,-4,0,-3,-5
1628231404.7716475,-12,-11,-7,-4,-1,7,9,-7
1628231404.7769217,4,5,0,5,2,-7,3,-2
1628231404.778813,-6,-8,-5,2,0,3,-1,-6
1628231404.7925382,-7,-5,-9,-4,-1,1,3,-8
1628231404.7944145,5,6,5,1,-1,-9,-5,6
1628231404.8002117,4,12,4,4,-11,-11,0,7
1628231404.8024094,-3,-7,-3,-1,0,5,4,-1
1628231404.8240628,-1,5,0,-7,-7,-7,-5,5
1628231404.8260682,4,1,2,-1,-1,-5,-3,3
1628231404.8287349,-4,-8,-8,-4,8,8,5,-8
1628231404.8309922,-5,-3,0,-6,-5,2,2,-7
1628231404.8349497,7,11,6,0,-4,-7,-1,-3
1628231404.8369465,-5,-3,-9,-5,1,-5,5,-6
1628231404.8396063,-9,-12,-5,-3,-2,12,0,-11
1628231404.841557,3,-3,-1,-4,-1,1,-6,-7
1628231404.8521771,0,6,5,-3,-4,2,0,1
1628231404.8541446,-7,-7,-3,-7,3,6,1,-9
1628231404.8602445,12,4,-2,-2,-5,-1,-6,3
1628231404.8621967,9,15,3,1,-3,-19,-4,4
1628231404.8760755,0,1,2,-1,3,-13,-1,3
1628231404.8793373,-1,4,-4,1,1,2,5,-2
1628231404.8829598,7,10,10,3,-5,-9,-8,9
1628231404.8848114,-2,1,-2,-4,1,0,2,-3
1628231404.8894663,-20,-28,-12,-1,12,21,12,-11
1628231404.8913016,-15,-7,-22,-2,10,12,6,-20
1628231404.8979003,1,-6,1,-7,0,-1,1,-2
1628231404.900034,-5,-7,-10,-2,1,3,1,-7
1628231404.9125698,4,1,6,3,2,3,1,-3
1628231404.9148686,20,21,13,1,-7,-20,-11,13
1628231404.9204278,12,8,19,9,-10,-12,-7,7
1628231404.9225056,-2,5,1,-2,-2,0,-2,-2
1628231404.9355283,5,6,4,-3,-12,-9,-8,9
1628231404.9381442,0,-4,-2,-3,-6,-4,-3,-4
1628231404.9429338,-27,-34,-23,-13,3,22,7,-17
1628231404.9448278,-9,-8,-19,-7,11,11,2,-23
1628231404.9581392,0,-1,1,-8,-3,0,-4,-5
1628231404.9604242,-7,-1,-11,-3,11,6,2,-7
1628231404.9632854,2,2,-4,-4,-6,-1,1,1
1628231404.9653814,17,15,13,8,-2,-21,-6,13
1628231404.9724252,13,9,14,11,-11,-11,-10,21
1628231404.9743268,0,2,0,1,-6,-2,-2,3
1628231404.9803119,5,1,8,-5,-6,-8,-4,5
1628231404.9827578,-4,-4,2,-4,-2,3,2,3
1628231404.994631,-27,-32,-21,-9,7,21,5,-12
1628231404.9965353,-5,-2,-11,-5,6,8,4,-13
1628231405.0029607,-6,-6,-3,5,10,3,2,1
1628231405.00474,-5,-4,-13,-7,4,4,5,-8
1628231405.0180383,6,4,2,1,0,-8,-6,1
1628231405.020073,20,21,19,6,-5,-23,-9,11
1628231405.0228288,8,5,11,6,-6,-6,-9,13
1628231405.0247703,-1,1,0,2,-2,2,0,3
1628231405.0324008,1,3,-1,2,1,-1,-4,-3
1628231405.0348086,-3,-6,2,-1,4,1,-1,-3
1628231405.0408425,-10,-7,-15,-7,1,8,4,-10
1628231405.042894,-4,-1,-8,-5,10,2,6,-9
1628231405.0551252,-3,-7,-4,-5,-1,2,3,1
1628231405.0571408,1,-3,-7,-1,3,1,2,-3
1628231405.0629368,1,4,0,0,-4,-11,-7,-2
1628231405.06502,16,14,5,-1,-15,-19,-7,1
1628231405.078224,9,7,7,4,-5,-8,-9,5
1628231405.0801573,-3,0,3,-2,-9,-5,0,-3
1628231405.0829058,2,-2,-2,-4,2,-4,-8,2
1628231405.0847843,-12,-5,-6,-3,-2,7,-1,0
1628231405.0923765,-4,-6,-5,3,-11,-5,5,-8
1628231405.0942342,-3,-6,-6,-7,0,3,7,-6
1628231405.1006105,-5,-1,-4,-3,2,3,2,-4
1628231405.1028113,-6,-10,-4,-4,3,12,8,-3
1628231405.1150463,0,1,-7,-2,1,5,-3,-3
1628231405.1169355,10,14,6,-2,-2,-5,-6,0
1628231405.1231225,0,2,6,2,-3,-2,-2,1
1628231405.1254015,1,0,2,-5,-3,-2,-2,-1
1628231405.1383936,8,12,7,1,-9,-12,-9,8
1628231405.1413598,0,-1,3,2,-5,-5,-2,4
1628231405.1441534,2,4,-1,5,3,3,1,-4
1628231405.146098,1,1,0,3,-1,-4,-4,0
1628231405.1521258,-2,3,-5,-3,1,1,1,-4
1628231405.1540868,-16,-22,-15,-9,2,24,7,-8
1628231405.1604316,-4,-1,-10,-3,5,0,2,-11
1628231405.1623821,6,6,1,1,4,-12,-4,3
1628231405.183689,-3,-4,-7,-5,0,-1,-6,-6
1628231405.1864264,0,-8,-5,0,2,-3,-1,0
1628231405.1891348,20,25,17,3,-15,-23,-8,15
1628231405.1910942,4,4,6,4,-6,-6,-2,9
1628231405.198729,-4,2,7,4,2,4,1,-5
1628231405.2008665,6,6,10,0,-9,-4,-3,8
1628231405.203597,-4,-8,0,-4,-3,-3,-2,3
1628231405.205348,-23,-30,-22,-15,0,22,3,-15
1628231405.2119215,-2,-5,-6,-3,5,6,5,-6
1628231405.2141051,7,3,-2,-3,2,-8,-4,-1
1628231405.2201505,-8,-6,-14,-10,-1,5,2,-6
1628231405.2220266,3,0,-5,1,8,-3,1,-2
1628231405.234727,22,30,16,6,-9,-26,-12,11
1628231405.2365346,3,0,7,4,-5,1,-2,5
1628231405.2428052,-5,-7,-3,4,-1,5,0,-5
1628231405.244769,-3,-3,6,-5,-10,3,1,-5
1628231405.258162,-2,-9,1,-4,-2,-1,-1,-3
1628231405.2601273,-24,-23,-15,-12,6,15,7,-13
1628231405.262849,2,3,0,4,2,6,4,-4
1628231405.2651324,7,4,3,-3,-2,-5,-5,1
1628231405.2723439,8,5,0,-3,2,-7,-1,0
1628231405.274311,2,1,-1,-1,-3,-5,-2,-4
1628231405.2804787,19,18,15,7,-6,-22,-9,16
1628231405.2825584,1,2,3,6,-2,-6,-5,8
1628231405.2952573,-6,-12,-4,2,11,12,3,-9
1628231405.2975955,-6,-3,-13,2,3,7,0,-17
1628231405.30325,-3,-8,-6,-4,5,1,-5,-4
1628231405.305189,-10,-11,-9,-5,-1,1,9,-12
1628231405.3180258,1,2,2,-4,-1,-5,4,-7
1628231405.3201103,9,7,3,-3,-1,-14,-7,1
1628231405.3227196,9,6,10,8,-1,-6,4,3
1628231405.3246794,-1,1,0,4,3,-4,0,-2
1628231405.3325963,7,4,12,1,-5,-10,-3,19
1628231405.3345826,-4,1,4,-3,0,-2,-8,4
1628231405.3404577,-10,-10,-8,-1,7,12,3,-7
1628231405.342443,-4,-4,-11,-2,9,4,2,-14
1628231405.354976,-4,-8,-5,-1,0,2,-3,-5
1628231405.3568413,-11,-4,-9,-4,-2,8,5,-11
1628231405.3631308,2,2,0,-4,1,-1,0,-2
1628231405.3655386,3,3,2,-4,-6,-4,-6,-1
1628231405.378139,5,2,6,-1,-5,-2,-2,6
1628231405.3801007,4,3,-3,-1,-7,-7,0,4
1628231405.3828056,6,7,10,4,-3,-14,-8,9
1628231405.3844905,4,3,-1,2,-3,-1,1,-1
1628231405.3922586,-15,-19,-11,-6,3,13,7,-4
1628231405.394034,2,1,-4,1,4,-1,4,-2
1628231405.400536,-7,-9,-6,-3,-3,3,0,-5
1628231405.4023433,-3,-5,-4,-7,-4,8,3,-1
1628231405.4149523,2,5,-5,-2,-7,-9,-5,1
1628231405.4168394,7,8,3,0,0,-7,-4,2
1628231405.4232416,-2,-5,-2,-7,-2,5,-2,2
1628231405.4251063,4,11,7,4,-2,-5,-6,1
1628231405.4383643,12,9,5,2,-1,-10,-8,-4
1628231405.4403446,-3,-11,-6,-4,-8,11,0,-11
1628231405.4431036,-12,-8,-9,-9,-8,4,-2,-8
1628231405.444964,6,8,0,0,-7,-8,-2,2
1628231405.4521027,-5,-4,-3,0,3,2,4,-6
1628231405.4540408,-9,-12,-1,-5,4,7,4,-4
1628231405.4601216,10,0,7,1,-3,-5,-4,6
1628231405.4622095,4,5,2,2,-2,-3,-3,8
1628231405.4748838,-7,-6,-5,-7,2,4,-4,-4
1628231405.4768589,3,7,4,0,-8,-7,-3,4
1628231405.4829361,8,4,4,2,-1,-13,-9,1
1628231405.4847586,-13,-14,-11,-9,7,1,3,-9
1628231405.4984307,-2,-4,-5,0,0,2,4,-2
1628231405.500743,10,11,3,3,-5,-8,-2,8
1628231405.503517,-3,-3,-8,4,0,5,3,-5
1628231405.5054722,-11,-13,-7,-1,-2,19,8,-6
1628231405.5118797,-12,-6,-11,-7,1,15,4,-10
1628231405.5139928,1,-3,5,-1,2,0,2,-1
1628231405.5202608,-8,-7,-6,-2,6,3,0,-12
1628231405.5222,4,1,5,-2,-8,-9,-9,-3
1628231405.5349658,17,16,11,7,-1,-18,-5,9
1628231405.5369442,15,9,16,8,-7,-15,-4,11
1628231405.5426595,3,6,1,1,1,-3,2,-3
1628231405.5444398,8,8,4,2,-8,-8,0,10
1628231405.5582042,2,5,-1,2,1,-1,0,2
1628231405.5602996,-22,-26,-24,-7,12,22,10,-16
1628231405.5634112,-11,-7,-18,-7,9,12,7,-23
1628231405.565493,-2,-3,-1,-1,7,1,-1,-2
1628231405.5720997,-3,-3,-12,-7,3,1,-1,-15
1628231405.5739346,4,4,-1,-4,-3,-1,-6,-2
1628231405.580389,18,26,17,6,-4,-21,-5,15
1628231405.5825114,14,8,21,13,-8,-12,-8,20
1628231405.5962515,5,7,1,1,-5,-4,-6,0
1628231405.598545,1,4,11,4,-1,-6,-6,8
1628231405.6029048,-3,-5,-3,-2,-6,3,-2,-1
1628231405.6047454,-27,-36,-25,-11,11,23,5,-21
1628231405.6179159,-11,-6,-11,-4,8,7,11,-14
1628231405.6199677,-3,-3,-9,-4,3,-1,-3,-1
1628231405.6226234,-9,-4,-9,-7,4,1,3,-8
1628231405.624467,3,6,0,2,1,-3,1,-2
1628231405.6324685,19,22,16,6,-9,-20,-12,14
1628231405.634549,10,5,16,4,-11,-9,-7,16
1628231405.640953,5,3,0,0,2,0,2,6
1628231405.6428418,6,5,8,-2,-5,-6,-9,7
1628231405.6552482,-4,-5,-1,0,0,0,0,-5
1628231405.657119,-21,-19,-19,-3,10,14,5,-11
1628231405.663798,-5,-5,-12,-7,2,4,7,-12
1628231405.666238,-3,-4,-1,-5,-2,1,-4,-5
1628231405.6775153,-1,-7,-6,-7,-4,7,5,-3
1628231405.6796713,1,2,2,-1,-3,-6,3,2
1628231405.6863062,17,22,11,-1,-8,-15,-13,9
1628231405.6883485,9,7,11,7,-3,-8,-6,11
1628231405.7012293,-1,-1,1,-2,-3,-2,-3,1
1628231405.7032259,2,1,0,4,5,-2,-5,0
1628231405.706567,-10,-7,-5,0,3,9,6,0
1628231405.7083943,-11,-6,-5,-1,-1,7,3,-7
1628231405.7145674,-5,-2,-5,-4,3,0,10,-7
1628231405.7164557,-7,-5,-7,-4,-1,1,0,-7
1628231405.723734,-2,-4,-2,-4,0,0,1,-6
1628231405.7256298,7,4,1,2,1,-1,-2,-2
1628231405.737127,9,12,6,4,5,-14,-4,10
1628231405.7391055,7,8,7,1,-3,-4,-10,5
1628231405.7460334,1,-1,4,-3,-6,1,-2,0
1628231405.7480445,7,2,5,0,-5,-5,-4,4
1628231405.7521021,-7,0,2,-2,-1,-5,-2,-5
1628231405.7543097,-3,-3,-1,7,1,6,3,-5
1628231405.7620194,-4,-4,-4,-2,2,2,3,-1
1628231405.7642663,-6,-5,-5,-1,2,2,1,-2
1628231405.7746844,-9,-14,-10,-6,-3,20,3,-11
1628231405.776693,-1,-2,-10,-7,2,11,-4,-3
1628231405.783752,9,5,4,0,2,-11,-4,2
1628231405.7856746,0,2,-2,-1,-3,-1,-9,2
1628231405.79716,-5,0,-6,-7,-2,-6,-4,5
1628231405.7994566,11,15,14,5,-4,-21,-8,9
1628231405.806089,6,2,11,5,-5,-6,-2,3
1628231405.807956,-4,2,2,-2,-2,-1,1,-5
1628231405.8118305,3,1,4,-6,-3,-4,-3,3
1628231405.8138244,-3,3,2,-2,-5,-1,1,1
1628231405.8210132,-30,-27,-25,-14,8,25,6,-12
1628231405.8229697,-2,1,-9,-9,0,2,5,-9
1628231405.8347046,5,3,3,6,4,-4,-5,-6
1628231405.8365633,-6,-7,-10,-6,-2,0,-5,-10
1628231405.843966,-3,-4,-8,3,1,-1,-5,-8
1628231405.8458035,22,31,19,12,-8,-19,-9,14
1628231405.8571422,8,0,9,10,-3,0,-6,13
1628231405.8589776,-2,-8,-2,-6,0,0,6,-7
1628231405.8669674,6,4,10,1,-6,-6,-2,7
1628231405.8689167,0,-9,3,0,0,4,4,-1
1628231405.881135,-25,-32,-18,-10,10,25,12,-12
1628231405.883065,-5,1,-5,-3,5,-2,5,-11
1628231405.8862953,3,8,-1,-3,3,-8,-5,1
1628231405.8881283,-9,-3,-11,-8,0,0,6,1
1628231405.8948684,-2,3,-5,-1,-5,-5,-6,-4
1628231405.8971593,27,25,20,9,-5,-18,-9,19
1628231405.9035215,6,1,3,0,-8,-5,0,6
1628231405.9053004,-11,-8,-5,2,9,3,-1,-2
1628231405.9173114,-6,-3,-10,-6,-6,6,-1,-10
1628231405.9191716,-1,-3,1,-3,-4,6,-2,5
1628231405.9262888,-17,-22,-14,-4,3,15,7,-18
1628231405.928506,-1,-1,4,-6,-1,-3,-2,-6
1628231405.9411325,5,3,2,-9,-4,-14,-4,5
1628231405.9430072,10,5,9,4,-4,-9,0,11
1628231405.946387,4,2,2,0,0,-1,-1,0
1628231405.9484186,18,21,17,6,-8,-21,-7,14
1628231405.9549046,3,3,6,0,-6,0,0,6
1628231405.9568677,-16,-14,-16,-8,-2,6,-2,-15
1628231405.964229,-8,-5,-13,-7,3,4,0,-6
1628231405.9663384,1,-9,-5,-2,-3,2,1,-4
1628231405.9774773,-2,-2,-3,-3,-1,1,5,-5
1628231405.9794185,-6,1,0,-6,-5,-2,3,-3
1628231405.9861288,1,4,4,-2,4,-10,1,-4
1628231405.9879818,6,5,8,4,-1,-9,0,6
1628231406.0012403,4,-1,-5,-1,-1,-7,-5,-2
1628231406.0031683,12,13,8,2,-1,-14,-11,6
1628231406.006469,0,-1,3,-2,-7,-1,-6,2
1628231406.0083053,-9,-13,-15,-6,3,9,3,-9
1628231406.0150437,-3,-1,-5,-2,0,3,-5,-7
1628231406.0170834,0,-7,-8,0,0,-1,-3,-4
1628231406.023831,-4,-3,-3,-4,-2,9,6,-8
1628231406.0257013,-6,2,-2,-1,-3,-6,-2,-3
1628231406.0372436,4,10,7,4,2,-9,-1,5
1628231406.0391757,1,-1,6,0,-3,1,-2,0
1628231406.0461757,5,6,1,7,5,-1,-2,7
1628231406.0485654,11,5,10,-4,-3,-12,-9,9
1628231406.0613225,-5,-6,-7,0,-3,7,-3,-5
1628231406.063422,-13,-10,-9,-3,6,9,0,-2
1628231406.068344,5,6,-1,-2,-3,-8,-3,-3
1628231406.0704618,-3,-5,-2,1,-2,2,2,-4
1628231406.0746377,-2,-3,-5,-4,2,6,4,-7
1628231406.0766203,7,2,4,1,-3,-2,-6,7
1628231406.083567,9,12,4,1,-2,-6,-1,11
1628231406.0855486,-5,-5,-3,2,7,9,-3,1
1628231406.0978746,2,4,6,-2,-6,-10,-3,4
1628231406.099804,9,7,3,-1,-9,-11,-4,-2
1628231406.1060383,-12,-9,-12,-6,0,2,-2,-8
1628231406.107942,-7,-5,-3,-1,-2,6,1,-4
1628231406.1209726,7,12,5,7,3,-5,-5,2
1628231406.122862,-1,-1,-4,2,6,9,5,0
1628231406.1262004,-10,-11,-5,-7,0,9,4,-5
1628231406.1281056,4,3,2,-1,-7,1,-5,-3
1628231406.1348703,2,7,6,2,-1,-3,-1,3
1628231406.1368048,-8,-7,-2,-2,10,4,2,-5
1628231406.1435776,-1,2,5,5,-6,-8,-5,6
1628231406.145399,6,13,11,-4,-3,-9,-12,5
1628231406.1572094,1,4,-1,-2,0,-12,3,7
1628231406.15932,1,2,-1,2,-2,-7,1,0
1628231406.1666,11,11,2,5,-2,-8,-2,9
1628231406.1683762,-3,-3,-7,-4,-3,1,5,0
1628231406.181132,-21,-31,-15,-8,2,22,2,-14
1628231406.1831384,-15,-10,-19,-8,4,12,2,-21
1628231406.1864858,3,1,5,-2,0,-2,-3,-1
1628231406.1883736,-5,-6,-10,-3,-1,2,4,-10
1628231406.1945453,7,2,-3,2,1,0,0,-1
1628231406.1964114,19,16,15,4,-6,-26,-5,13
1628231406.2036443,16,9,19,10,-10,-12,-6,14
1628231406.2054713,1,6,3,4,-1,-2,4,0
1628231406.217171,4,6,9,4,-4,-5,-6,13
1628231406.2190838,-4,-1,-1,0,-8,4,0,-7
1628231406.2259903,-23,-31,-22,-8,7,27,6,-9
1628231406.2284846,-14,-9,-21,-8,10,10,2,-24
1628231406.241423,4,-3,-5,1,3,1,3,-3
1628231406.243643,-2,-4,-15,-12,0,6,3,-8
1628231406.2469354,2,8,0,1,4,1,0,-2
1628231406.2487926,24,27,12,5,-12,-23,-6,9
1628231406.2546299,12,10,18,11,-15,-10,-7,16
1628231406.2564406,5,8,3,8,0,-1,-2,3
1628231406.263815,8,3,11,-3,-13,-16,-9,5
1628231406.26597,-2,-5,0,-1,2,2,-6,-2
1628231406.2774386,-30,-27,-17,-14,0,21,7,-18
1628231406.2793052,-8,-4,-10,2,14,9,8,-14
1628231406.286325,-7,-2,-3,-4,-3,2,-2,-11
1628231406.2881775,-7,-5,-9,-4,4,5,3,-4
1628231406.3009303,6,2,1,-8,1,-11,-3,2
1628231406.3027873,20,18,16,2,-6,-19,-5,15
1628231406.30596,10,7,14,9,-5,-7,-8,9
1628231406.307811,2,-3,1,-4,-8,-3,1,2
1628231406.3146122,4,3,2,2,1,-4,0,1
1628231406.3165455,-8,-7,-3,-11,-6,3,-2,2
1628231406.3239892,-18,-20,-17,-7,-3,11,7,-7
1628231406.325845,-3,-1,-9,-8,4,3,8,-11
1628231406.3373876,-3,-3,-4,-5,0,-1,2,-3
1628231406.339493,-1,0,-1,-7,-7,1,0,-3
1628231406.3464935,9,-1,2,-1,-2,-7,0,1
1628231406.3485973,14,12,11,1,-6,-13,-7,7
1628231406.3614154,7,4,8,-2,-5,-8,-11,7
1628231406.3639069,-6,-5,1,-4,-6,-5,-3,-5
1628231406.3682225,2,1,3,-1,1,-4,-7,-1
1628231406.3702192,-5,-10,-9,-3,-2,7,3,-2
1628231406.3749073,-6,-3,-1,1,-11,9,2,-6
1628231406.3767238,-1,-1,-6,-10,1,0,-3,-7
1628231406.3843756,-2,2,-3,0,2,5,3,-7
1628231406.386305,-5,-2,-11,-4,0,5,12,-2
1628231406.3973212,3,0,-1,-2,-4,6,1,-5
1628231406.3995798,5,7,7,1,-3,-11,-7,8
1628231406.4060543,1,1,1,-1,-8,-6,-9,2
1628231406.4079065,-2,-1,0,3,4,4,-4,-2
1628231406.4209173,8,9,8,9,1,-10,-7,7
1628231406.4229534,4,3,-3,2,-4,-6,2,4
1628231406.4266403,-5,-1,-4,0,4,-1,1,-5
1628231406.4289203,3,1,-1,-4,-2,-3,-4,0
1628231406.4347138,-5,1,-7,0,7,0,-1,-1
1628231406.4365432,-15,-21,-16,-7,9,21,9,-13
1628231406.4440207,-7,-1,-14,-5,7,3,3,-11
1628231406.4459474,7,7,4,1,0,-11,-4,8
1628231406.4572158,0,-4,-6,-4,-3,0,-6,-5
1628231406.4591863,-4,-3,0,1,1,3,-1,-4
1628231406.4665341,21,23,15,4,-7,-24,-9,15
1628231406.4684186,2,3,8,3,-4,-3,-5,6
1628231406.481183,-2,0,6,1,-6,-4,6,-4
1628231406.4831753,5,4,8,3,-9,-7,1,8
1628231406.4862554,0,0,2,-2,-1,-3,2,4
1628231406.4879344,-23,-32,-22,-12,6,20,11,-20
1628231406.49497,3,-1,-8,-5,2,1,4,-7
1628231406.4970067,6,3,-1,-2,-3,-1,-5,3
1628231406.5034635,-4,-8,-11,-9,0,9,5,-10
1628231406.5051897,-6,0,-6,2,0,5,-6,-2
1628231406.5173836,23,29,16,5,-8,-25,-9,17
1628231406.5192592,6,0,4,10,-1,-2,-8,6
1628231406.5263312,-3,-10,-1,2,-6,5,4,0
1628231406.5281918,4,-3,3,-1,2,1,-1,1
1628231406.5411708,-5,-6,-3,-1,-2,8,-2,0
1628231406.5432875,-24,-24,-17,-9,12,14,6,-15
1628231406.5467718,-8,0,-6,-5,-2,-3,-2,-3
1628231406.5488405,5,6,4,2,1,-4,-2,0
1628231406.5550075,0,4,-5,-6,3,-8,1,0
1628231406.556854,2,2,-3,-3,-5,-5,-1,-4
1628231406.5714927,23,27,23,8,-8,-22,-14,15
1628231406.5734143,3,2,9,1,-3,-4,-2,6
1628231406.5774117,-9,-13,-9,-4,-1,10,0,-3
1628231406.5794144,-7,-3,-13,-9,1,6,-1,-15
1628231406.586336,-2,-7,-4,2,3,6,3,1
1628231406.588182,-15,-17,-13,-7,0,3,4,-9
1628231406.6012964,0,-2,1,-3,2,-2,1,-3
1628231406.6033947,4,4,4,-4,-4,-11,-2,6
1628231406.6067967,8,5,10,2,0,-6,-8,5
1628231406.6086364,3,6,2,-2,-3,-7,-3,-1
1628231406.6151686,10,12,9,7,3,-10,-5,6
1628231406.6172287,0,2,2,0,-4,-7,-2,4
1628231406.6239352,-12,-19,-14,-3,3,8,4,-11
1628231406.6260955,-4,-4,-11,0,1,3,4,-13
1628231406.6380177,-7,-7,-5,1,1,-4,-3,-3
1628231406.6400914,0,1,-5,-4,-4,5,6,-9
1628231406.6464107,6,4,-3,1,0,-1,2,4
1628231406.6483507,3,5,-1,-4,-4,-8,-2,-1
1628231406.661301,5,5,7,2,-9,-2,-4,5
1628231406.6634362,2,2,4,1,1,-4,-3,-1
1628231406.6675847,7,7,7,-3,-5,-17,-6,4
1628231406.6696846,-1,-4,0,-5,1,5,-8,4
1628231406.6838746,-12,-12,-5,-12,-7,7,2,-10
1628231406.6859229,-2,0,-4,-1,2,-2,1,-1
1628231406.6892486,-7,-4,-5,-7,-8,8,2,-4
1628231406.6913404,-8,-7,-4,0,-7,3,4,-6
1628231406.6983252,2,-3,-2,-8,-6,-12,0,0
1628231406.700421,6,5,3,2,-3,-10,0,2
1628231406.704542,-2,-6,1,-1,-3,4,-2,-1
1628231406.7065377,4,10,3,1,-2,-6,-4,3
1628231406.7211323,10,11,6,-1,-8,-5,-8,11
1628231406.7232857,-9,-8,-5,-6,-6,7,0,-8
1628231406.7272284,-9,-8,-6,-2,4,5,8,-8
1628231406.7293506,6,9,0,6,-1,-9,4,5
1628231406.734962,-2,-9,-4,-1,6,4,0,-6
1628231406.7369852,-4,-8,-5,-3,4,7,6,-5
1628231406.7514896,8,6,7,3,-5,-9,0,5
1628231406.7533636,3,10,12,3,-6,-6,-7,8
1628231406.7587605,-7,-7,-3,-2,4,6,2,0
1628231406.7610006,6,5,2,0,0,-1,0,2
1628231406.7647998,9,5,-1,1,0,-7,-5,-2
1628231406.7671506,-4,-5,-8,2,8,6,8,-6
1628231406.7805445,-7,-6,-5,-3,-3,0,0,-2
1628231406.783073,8,11,3,1,-6,-9,-6,3
1628231406.7870498,-2,-4,-5,-4,-8,0,-2,0
1628231406.7893102,-8,-12,-11,-7,-1,14,9,-13
1628231406.794841,-9,-7,-7,-3,0,14,0,-2
1628231406.7966263,2,-5,-4,2,-2,-5,-1,4
1628231406.8034184,-9,-10,-6,-6,2,7,-1,-8
1628231406.805168,4,-3,3,-4,-4,-3,-7,3
1628231406.818155,12,15,11,2,-10,-20,-1,-1
1628231406.82033,12,7,10,0,-11,-13,-7,7
1628231406.8251638,-3,10,2,-1,-3,-3,5,-3
1628231406.827151,6,9,8,3,-3,-10,-6,9
1628231406.8408158,0,1,1,5,-4,-3,1,-6
1628231406.8429232,-22,-30,-22,-11,4,24,8,-15
1628231406.8473332,-13,-7,-23,-8,12,12,6,-25
1628231406.850187,1,-6,1,-2,4,-3,-2,0
1628231406.8628232,-1,-4,-12,-8,5,2,3,-5
1628231406.864875,1,3,4,3,-3,-4,-4,4
1628231406.8716736,20,22,16,4,-6,-28,-10,13
1628231406.873639,11,9,17,8,-9,-14,-6,13
1628231406.878105,1,4,2,1,-2,0,3,0
1628231406.8802173,2,3,8,0,-7,-6,-7,9
1628231406.88465,0,-2,3,-4,0,3,-4,1
1628231406.8865652,-27,-36,-24,-14,1,25,7,-16
1628231406.9010613,-10,-5,-16,0,15,6,8,-18
1628231406.9032102,-6,0,-6,-1,2,2,1,-5
1628231406.907256,-9,-6,-13,-10,1,1,5,-12
1628231406.9091864,0,2,2,-5,-5,-3,-1,-1
1628231406.9245079,22,30,12,9,-1,-22,-7,13
1628231406.9278853,11,7,15,4,-12,-12,-9,14
1628231406.9337952,4,-3,1,3,-3,-3,0,1
1628231406.9365578,5,5,10,-3,-9,-9,-5,5
1628231406.9392977,-4,-9,-1,-6,-1,8,0,3
1628231406.9412925,-17,-19,-13,0,12,22,7,-7
1628231406.9445426,-9,-3,-13,-2,7,6,10,-10
1628231406.9463155,-4,-10,-7,-7,-2,-3,-1,-4
1628231406.960654,-5,-4,-7,-10,-5,3,1,-8
1628231406.9626818,6,4,-2,0,-3,-3,0,0
1628231406.9679427,17,23,12,6,-6,-12,-5,13
1628231406.9698865,9,10,11,5,-9,-6,-15,11
1628231406.9843745,6,2,1,-4,-7,-7,-3,-1
1628231406.9863915,0,1,1,-5,-7,-7,-6,-2
1628231406.9899857,-7,-11,0,-1,4,5,-3,1
1628231406.9927077,-10,-4,-6,-2,1,10,4,-7
1628231406.9981709,-8,-7,-8,2,8,3,11,-4
1628231407.0007086,-6,-8,-2,-6,2,-4,2,-6
1628231407.0045547,-4,-1,-5,-2,2,0,1,0
1628231407.006455,4,3,3,2,3,0,2,-1
1628231407.0203717,12,11,11,5,5,-12,-7,8
1628231407.0225909,4,5,6,8,-3,-2,-5,8
1628231407.027516,-1,-1,2,1,2,4,2,5
1628231407.029565,4,-2,-3,7,0,-2,-3,5
1628231407.044024,-5,-2,2,0,-4,5,0,0
1628231407.0462508,-2,3,-1,4,-1,0,5,-8
1628231407.0504372,-4,-5,-8,-13,-7,1,-2,-5
1628231407.0524256,-5,-5,-7,-3,4,3,4,-6
1628231407.0588057,-11,-11,-10,-1,0,15,4,-15
1628231407.060805,-4,-5,1,-3,2,6,1,-2
1628231407.0648277,10,12,6,2,-3,-13,-4,1
1628231407.0675414,3,2,0,0,-3,-3,-5,3
1628231407.0806522,2,-3,1,-6,-5,-4,-4,-4
1628231407.0833662,12,13,12,4,-5,-13,-5,8
1628231407.0949583,9,4,7,6,-5,-4,-3,2
1628231407.0969539,-2,4,-3,3,-3,5,4,-5
1628231407.103373,1,1,3,0,-6,-3,1,6
1628231407.1053524,4,-1,-1,3,0,4,0,1
1628231407.1096385,-19,-25,-18,-8,8,24,5,-15
1628231407.1115906,-6,3,-6,-7,1,0,1,-6
1628231407.1179903,6,1,2,-1,3,-6,-3,0
1628231407.1198764,-3,-3,-10,-5,5,0,-2,-8
1628231407.1248963,-3,-5,-6,2,3,1,2,-5
1628231407.1270552,22,22,19,10,-7,-19,-8,12
1628231407.1407008,8,5,9,5,-7,-9,-7,5
1628231407.1427994,-8,-4,-6,-3,0,5,5,-2
1628231407.1473796,9,2,10,0,-10,-6,0,7
1628231407.1501548,2,-5,-1,-3,-6,-3,-2,1
1628231407.1715143,-27,-28,-24,-6,7,26,9,-16
1628231407.173457,-2,-3,-6,-4,4,-1,2,-12
1628231407.1768482,5,4,0,-4,-4,-8,-5,0
1628231407.1790364,-10,-5,-14,-8,2,-1,4,-4
1628231407.181678,3,4,-1,0,3,3,-2,-1
1628231407.1841922,20,31,14,10,-11,-21,-8,13
1628231407.1879907,2,6,6,5,-6,3,-8,7
1628231407.1899571,0,-4,2,1,-4,0,-2,-4
1628231407.2088726,-5,-3,-4,-6,-3,5,-1,-6
1628231407.210918,-6,-4,3,-4,-2,-3,-2,-3
1628231407.214447,-22,-22,-15,-3,9,14,9,-15
1628231407.2170732,-1,1,-4,-4,9,-3,-1,-9
1628231407.2238226,8,5,-1,-3,0,-8,-8,0
1628231407.2260962,12,5,5,-3,-1,-6,-4,2
1628231407.2390704,4,8,0,-4,1,-4,1,0
1628231407.2410834,17,24,18,8,-9,-16,-9,11
1628231407.24377,3,3,4,5,-3,-4,-2,9
1628231407.246397,-10,-14,-10,-5,3,14,1,-5
1628231407.2520635,-6,-5,-12,-1,7,6,2,-9
1628231407.2556007,-1,-4,-5,0,5,2,2,2
1628231407.2601337,-6,-8,-7,-7,-1,0,7,-13
1628231407.2620702,1,3,-5,-1,1,-2,7,-3
1628231407.2677305,6,5,2,-3,2,-11,-2,0
1628231407.2695754,9,6,11,3,-4,-3,-3,1
1628231407.2842534,2,4,3,0,-1,0,-4,1
1628231407.2861896,9,8,9,7,-3,-7,-9,8
1628231407.2904558,5,1,1,2,1,-1,-3,-3
1628231407.2926662,-14,-13,-11,-2,5,12,6,-7
1628231407.29824,-5,-1,-8,-1,4,1,-2,-5
1628231407.3006082,-4,-7,-4,3,2,3,0,-1
1628231407.304502,-11,-2,-8,-5,-5,6,2,-3
1628231407.306508,1,-1,2,-2,3,3,3,0
1628231407.3209772,1,1,4,-4,-7,-7,2,2
1628231407.323145,3,3,6,0,-5,-2,-6,6
1628231407.3271437,7,-1,-2,1,-2,-1,0,-3
1628231407.3289797,10,7,5,5,3,-9,-14,9
1628231407.3437476,-4,-4,-4,-1,4,6,-3,4
1628231407.3458376,-11,-13,-9,-7,-1,8,7,-8
1628231407.3497345,-1,4,-1,-2,6,-5,0,0
1628231407.3516881,-8,-7,-9,-4,-4,3,0,-3
1628231407.3575835,-7,-5,-7,0,-1,4,5,-6
1628231407.359576,5,7,7,2,-6,-16,-1,0
1628231407.3668156,6,6,9,-1,-5,-7,-9,1
1628231407.3689208,0,-5,0,0,2,1,1,2
1628231407.381189,3,6,4,-2,-7,-1,-2,8
1628231407.3841236,8,6,2,-2,0,-6,-5,2
1628231407.388827,-9,-7,-7,-3,3,6,-2,-8
1628231407.3910813,-3,-7,-6,-1,2,-1,2,-3
1628231407.4112988,10,8,1,0,-1,-8,-1,-5
1628231407.4134514,-10,-6,-4,-5,5,5,-5,-6
1628231407.417615,-5,-9,-3,-3,-7,10,6,-7
1628231407.4195745,6,4,6,-1,-2,-5,-6,0
1628231407.42234,4,7,3,0,-8,-10,-9,4
1628231407.4242322,-5,-8,-1,1,5,4,2,-3
1628231407.4274168,1,4,4,-5,-5,-8,-1,6
1628231407.4293475,2,1,2,1,-5,-13,0,6
1628231407.440566,-7,-4,-7,-7,4,-4,1,-7
1628231407.4425216,1,0,-7,-2,-4,1,3,-2
1628231407.4474986,5,9,4,1,0,-7,-6,8
1628231407.4501543,-7,-5,-7,-3,-5,3,-1,-4
1628231407.4639585,-11,-20,-11,-5,2,17,5,-11
1628231407.466398,-18,-10,-13,-3,9,11,7,-8
1628231407.4699764,0,2,7,0,-4,0,-2,-1
1628231407.4718158,-6,-4,-9,-11,-2,6,2,-9
1628231407.4770374,3,6,2,-2,0,-5,-4,0
1628231407.4789755,13,16,11,-1,-2,-21,-6,7
1628231407.486074,16,7,15,6,-7,-12,-8,10
1628231407.4880147,1,3,5,1,-1,-1,-1,-5
1628231407.500716,6,7,10,-1,-12,-7,-2,8
1628231407.5027115,-2,-2,-1,-4,-2,-3,1,-7
1628231407.5071626,-28,-31,-27,-9,7,26,12,-9
1628231407.5089962,-12,-5,-22,-4,13,10,7,-25
1628231407.5240622,-2,-6,-5,-4,3,5,-6,-1
1628231407.526019,-6,-4,-15,-6,1,2,4,-4
1628231407.5294428,0,-1,-6,0,2,-3,3,0
1628231407.5312886,16,24,11,5,-8,-20,-10,9
1628231407.5371852,16,9,17,7,-7,-13,-3,9
1628231407.5390944,8,9,8,-2,-7,-1,-5,3
1628231407.5537367,9,3,12,3,-10,-9,-6,13
1628231407.555788,-3,-5,7,3,0,1,3,1
1628231407.5603335,-24,-32,-22,-2,12,24,11,-11
1628231407.562113,-9,-7,-15,-2,13,6,8,-18
1628231407.5672274,-2,-4,-3,1,3,-4,1,-1
1628231407.569051,-6,-3,-12,-6,4,5,5,-6
1628231407.5841131,-1,8,-1,4,0,-9,0,1
1628231407.5860453,23,20,17,3,-10,-22,-7,13
1628231407.5894942,11,10,16,2,-16,-8,-12,15
1628231407.591357,5,5,-2,-2,-4,-8,2,-4
1628231407.5977094,9,4,9,3,-5,-6,1,5
1628231407.5999146,-5,-9,-6,0,2,5,2,-1
1628231407.6062772,-19,-17,-13,-6,6,14,7,-14
1628231407.6081002,-6,-5,-8,-5,2,6,6,-11
1628231407.6203496,0,-3,-7,-2,3,-3,-4,-5
1628231407.622572,-3,-2,-1,-3,1,-3,2,-5
1628231407.627498,3,4,2,1,-4,-5,-3,-3
1628231407.6295576,12,17,7,4,-1,-16,-6,7
1628231407.6437721,7,5,12,8,-1,-5,-6,14
1628231407.6459312,5,0,1,0,-4,6,-5,0
1628231407.6494815,-1,1,-2,-1,-2,-1,-5,1
1628231407.6515799,-5,-5,-4,-1,-2,4,-1,-4
1628231407.6572444,-10,-7,-4,-6,-6,8,3,-10
1628231407.6593208,-5,-3,-12,-5,1,3,7,-6
1628231407.6666787,-1,-1,-5,-2,5,4,0,-4
1628231407.6687677,0,-1,-1,-4,0,5,4,-8
1628231407.6807518,4,5,-2,3,-1,-2,-2,-3
1628231407.683183,9,14,8,6,-3,-15,-5,6
1628231407.6871846,3,4,4,2,-3,-3,-8,4
1628231407.6892097,-5,-8,-1,4,0,1,2,3
1628231407.702959,7,5,4,3,-1,-4,-11,4
1628231407.7049482,-8,-2,-1,2,0,4,0,4
1628231407.709644,-4,-3,-5,1,-4,-1,4,0
1628231407.7115772,-2,1,0,-6,-6,1,-1,1
1628231407.7172856,-4,-2,-5,-7,-1,-2,3,1
1628231407.719429,-11,-13,-14,-3,11,24,8,-10
1628231407.7264183,-4,0,-6,-1,6,10,4,-11
1628231407.7284403,10,10,2,1,2,-11,-4,2
1628231407.7405584,-1,3,-2,-3,0,-1,-6,-3
1628231407.7428818,4,-1,-4,0,1,1,-3,0
1628231407.7474277,15,21,15,6,-4,-16,-3,12
1628231407.749378,8,3,5,0,-9,-2,-8,9
1628231407.7630174,-1,-1,2,0,-4,13,4,-7
1628231407.7650406,4,0,7,-3,-9,-4,0,1
1628231407.7696726,-5,-2,3,-1,3,-5,-1,-2
1628231407.7716026,-18,-27,-16,-7,10,26,6,-17
1628231407.786322,-4,-1,-8,-2,6,4,6,-11
1628231407.7883918,7,6,0,-6,1,-7,-6,-2
1628231407.7921526,-3,-6,-9,-4,2,8,-6,-6
1628231407.7942345,-9,0,-3,-3,5,2,-1,-2
1628231407.801192,20,28,18,12,-7,-26,-6,17
1628231407.803288,3,4,9,5,-2,-3,-5,5
1628231407.807108,2,1,-2,2,-3,-1,3,4
1628231407.8088996,8,1,8,2,-8,-3,-3,4
1628231407.8231409,-5,-3,2,-2,-12,-3,-3,-1
1628231407.8254173,-20,-30,-18,-9,7,22,7,-14
1628231407.8299227,-6,1,-5,-7,3,3,6,-13
1628231407.8319037,3,6,0,-5,1,-6,-3,0
1628231407.8465695,-3,-4,-8,-3,6,-3,1,-5
1628231407.8485317,-1,4,-3,-2,-5,-2,4,-3
1628231407.8521712,16,26,15,6,-14,-25,-11,15
1628231407.8543441,1,1,4,4,-1,-2,-6,12
1628231407.8606372,-5,-12,-1,2,6,10,3,0
1628231407.8626652,-9,-5,-5,-1,8,5,-4,-2
1628231407.8674548,0,-1,3,-1,-2,2,3,-2
1628231407.8694284,-20,-19,-16,-10,3,9,7,-18
1628231407.8830266,-1,-3,-3,-7,1,3,0,-3
1628231407.8861294,5,3,7,-4,-4,-6,1,5
1628231407.8910398,8,2,12,1,-2,-6,-1,2
1628231407.8933208,3,6,1,-1,-4,-3,-1,4
1628231407.9065592,13,15,13,5,-9,-14,-9,12
1628231407.9085472,3,2,5,1,-12,-9,-2,3
1628231407.9119916,-14,-20,-9,-2,5,12,3,-8
1628231407.914057,-7,-6,-10,-1,3,6,0,-7
1628231407.922168,-3,-9,-2,0,-1,4,0,1
1628231407.9241855,-9,-7,-11,-3,2,2,6,-5
1628231407.9274852,-2,-1,-2,0,-3,0,-2,-1
1628231407.9292092,1,5,5,-1,-6,-5,-3,2
1628231407.9428246,5,8,9,3,-9,-4,-4,4
1628231407.9445655,0,-1,2,1,-8,-2,-5,-4
1628231407.9498599,9,8,5,5,-2,-5,-8,12
1628231407.952913,5,1,-2,2,5,-3,-2,1
1628231407.9663186,-8,-15,-8,-2,6,11,6,-8
1628231407.9683728,-3,0,-6,1,7,1,5,-4
1628231407.9717054,-5,-6,-6,-3,-4,3,2,-2
1628231407.9736438,-6,-3,-5,1,0,5,7,-5
1628231407.9805412,3,4,-3,-5,-3,-8,3,0
1628231407.9824414,9,5,1,-1,2,-7,-6,3
1628231407.9885256,3,-3,5,4,-1,1,-4,5
1628231407.9904172,0,5,3,4,7,-7,-1,0
1628231408.0029783,15,11,9,1,-6,-14,-12,2
1628231408.004687,-4,-2,-1,1,1,1,-3,2
1628231408.0096176,-11,-14,-11,-4,3,12,3,-11
1628231408.011365,3,3,0,1,0,-4,4,3
1628231408.0263793,-10,-5,-2,0,-3,1,-2,-5
1628231408.0283518,-5,-5,1,0,1,8,10,-1
1628231408.0318174,3,8,3,2,-5,-7,0,7
1628231408.0337791,2,4,2,-1,-8,-11,-2,4
1628231408.0402696,-6,-7,-6,-1,3,8,1,3
1628231408.0421476,4,2,7,5,-11,-8,-3,-2
1628231408.0476673,8,10,6,1,-2,-10,-9,-1
1628231408.0502589,-5,-13,-10,-1,6,7,1,-8
1628231408.0633416,-9,-7,-4,-1,7,6,4,-3
1628231408.065589,5,11,2,-3,-5,-8,-7,4
1628231408.069693,-4,-6,-3,-2,-1,4,0,1
1628231408.0715892,-11,-9,-4,-8,-2,12,1,-9
1628231408.0877438,4,-3,5,-4,-9,5,-3,-2
1628231408.0899737,5,8,5,-6,-4,-8,-5,5
1628231408.093765,-5,-10,-5,-2,2,5,2,-5
1628231408.095625,7,2,9,2,-7,-5,-8,2
1628231408.1007855,5,9,8,4,1,-13,-6,6
1628231408.1028984,-5,7,-3,-3,0,-5,-3,0
1628231408.1070628,-4,1,-5,5,1,1,0,-5
1628231408.1088853,7,11,6,1,-10,-7,-1,11
1628231408.123256,-3,-1,-10,-8,3,-7,1,-1
1628231408.1251438,-18,-26,-18,-6,8,21,8,-14
1628231408.1295443,-19,-12,-19,-6,10,11,8,-9
1628231408.1316175,2,-1,-3,-5,1,2,2,-1
1628231408.147048,-4,-2,-8,-3,-1,3,5,-8
1628231408.149436,3,5,5,2,1,5,-1,4
1628231408.1554122,21,18,15,1,-6,-25,-7,8
1628231408.1579182,15,11,22,5,-7,-10,-1,13
1628231408.1608827,2,3,-1,-1,-6,-1,1,0
1628231408.1629066,4,5,12,4,-7,-6,-9,5
1628231408.1751418,1,-1,-1,-4,-5,0,2,-2
1628231408.1771235,-28,-30,-28,-10,7,29,6,-14
1628231408.1838613,-14,-8,-20,-5,16,10,5,-21
1628231408.1871736,0,-5,-3,-1,2,0,1,1
1628231408.1907573,-6,-2,-8,-10,-1,-1,3,-7
1628231408.1926012,-2,6,1,3,1,-9,-7,-1
1628231408.2061224,22,23,15,1,-4,-17,-3,11
1628231408.208097,14,10,14,11,-10,-11,-3,18
1628231408.2114043,2,8,1,5,0,1,0,-2
1628231408.213184,5,1,7,0,-14,-5,-6,5
1628231408.221175,-3,-3,2,4,-1,2,2,3
1628231408.2232661,-20,-29,-23,-10,6,23,8,-9
1628231408.2271116,-8,-7,-16,-3,10,9,12,-20
1628231408.2289076,-4,-6,-4,-1,-1,8,3,-4
1628231408.2434063,-7,-5,-11,-4,5,5,5,-7
1628231408.2454019,-2,1,-4,-2,-2,-3,-1,-3
1628231408.2496762,19,24,13,4,-8,-21,-7,13
1628231408.2517326,11,10,15,6,-9,-5,-11,15
1628231408.2661924,4,-1,6,2,-5,-4,-1,3
1628231408.2681985,5,0,1,1,3,-5,-4,2
1628231408.2714121,1,-7,-3,-1,0,5,4,0
1628231408.273228,-13,-18,-13,-8,-3,13,7,-10
1628231408.2799993,-9,-2,-9,-6,-1,4,7,-13
1628231408.2824547,-4,-3,-4,-2,2,0,-4,-8
1628231408.2888665,-4,-2,-5,-7,-3,2,1,-8
1628231408.2908034,0,7,2,1,-1,-14,0,-5
1628231408.303149,13,9,8,5,-7,-14,-11,8
1628231408.305169,7,2,10,5,-8,-6,-6,10
1628231408.309721,-2,1,-3,2,3,-3,-3,2
1628231408.311504,4,1,-3,5,2,0,-5,6
1628231408.3261273,-7,-5,-4,-6,1,6,0,-2
1628231408.3280203,-8,-6,-3,-1,-9,4,9,-6
1628231408.33132,-5,-5,-5,-6,-5,1,5,-4
1628231408.3331532,-1,-6,-5,1,6,3,5,-4
1628231408.3487532,-2,1,-7,-1,8,2,4,-6
1628231408.3508956,5,0,3,-1,-1,1,-1,-2
1628231408.3545153,9,8,10,0,-4,-9,-6,3
1628231408.3563716,2,5,3,1,-4,-7,-6,2
1628231408.363226,-3,-3,-5,0,-2,2,-3,3
1628231408.3653145,5,11,7,2,-6,-14,-12,4
1628231408.369905,2,3,-1,0,5,-3,-2,2
1628231408.3718119,0,-3,2,3,1,5,5,0
1628231408.3937051,-2,-1,0,-1,-2,-2,2,1
1628231408.3956919,-4,-3,0,0,1,2,4,4
1628231408.3990698,-14,-23,-12,-4,0,17,6,-12
1628231408.4009943,-10,-3,-13,-5,7,-1,-1,-9
1628231408.4037938,8,8,5,1,-1,-12,-4,4
1628231408.405821,-2,-2,-4,-2,5,6,-3,-2
1628231408.4164493,-2,-7,-2,-2,-2,1,-3,0
1628231408.4186807,15,22,15,3,-9,-22,-15,9
1628231408.422884,3,-3,3,3,-8,-6,-3,4
1628231408.4246073,-5,-1,-4,-7,-8,1,-1,0
1628231408.4297013,5,2,8,3,-5,-6,-2,3
1628231408.4316645,-5,-2,-1,-1,2,-1,-1,-2
1628231408.44643,-24,-26,-15,-3,11,24,4,-14
1628231408.448356,-9,-2,-8,-2,7,4,-4,-14
1628231408.4519298,0,5,-3,-1,-1,-2,-2,1
1628231408.4539716,-10,-6,-12,-7,-4,7,2,-7
1628231408.4597285,1,-5,-1,-8,0,-1,0,-6
1628231408.461428,20,26,16,9,-2,-23,-7,17
1628231408.4687748,5,2,3,9,-2,-5,-7,11
1628231408.4705477,-4,-3,1,2,3,1,1,-4
1628231408.483062,3,2,4,-1,-5,4,-5,2
1628231408.4851358,-2,-3,3,-2,-5,1,-6,-2
1628231408.4895332,-20,-29,-18,-17,3,17,8,-13
1628231408.4914353,0,0,-6,-5,1,1,2,-5
1628231408.5059927,-2,4,-4,0,4,-2,1,2
1628231408.5079243,3,5,-3,0,2,-6,1,-7
1628231408.511963,-3,4,-3,-2,0,-3,-6,-7
1628231408.5139203,21,25,19,8,-10,-21,-14,18
1628231408.519762,1,6,7,2,-6,-2,-3,3
1628231408.5217967,-8,-12,-9,-3,3,11,-1,-7
1628231408.5285738,-9,-3,-8,-1,4,7,1,-13
1628231408.5305645,-1,0,-4,-1,0,0,-3,-2
1628231408.543063,-13,-15,-16,-3,4,8,11,-10
1628231408.5449588,-2,2,-3,-2,-3,-4,5,-4
1628231408.5495567,3,5,0,-2,-1,-12,-2,4
1628231408.5516052,9,6,13,5,-3,-5,-2,5
1628231408.566202,-1,5,-1,-1,-2,-6,-1,4
1628231408.5682802,13,14,13,7,-5,-11,-9,11
1628231408.5716279,3,6,4,5,-2,1,-1,2
1628231408.573463,-12,-15,-11,-5,2,13,5,-9
1628231408.5801797,-7,-5,-9,0,4,5,0,-9
1628231408.5821838,-2,-6,2,1,-1,2,-5,-3
1628231408.5888963,-10,-2,-3,-3,3,3,4,-6
1628231408.5911093,-1,0,-2,-1,4,1,0,-6
1628231408.6030617,4,5,1,3,5,-3,-2,4
1628231408.604963,6,5,8,4,-5,-2,1,5
1628231408.6097314,2,4,0,0,-1,-4,-4,0
1628231408.6116455,6,9,10,-2,-3,-13,-12,7
1628231408.6259649,3,-1,4,3,1,4,-2,0
1628231408.627702,-16,-14,-9,-5,10,10,6,-8
1628231408.6321697,-1,2,-4,0,3,2,0,0
1628231408.6348298,0,-4,-10,-1,-5,3,0,3
1628231408.6482568,-8,-1,-10,-7,-4,4,7,-3
1628231408.6505377,1,2,3,1,-5,-5,-5,4
1628231408.6533294,4,5,4,2,-2,-12,-6,8
1628231408.655453,-1,-3,5,1,-1,4,1,2
1628231408.6638181,3,5,5,0,-6,-10,-6,1
1628231408.665833,11,11,3,2,-6,-9,-5,3
1628231408.6697016,-3,-5,-4,-5,-3,6,-1,-3
1628231408.6716409,-4,-8,-6,-4,4,6,4,-7
1628231408.6847248,4,7,2,1,-2,-8,-4,2
1628231408.6867228,-7,-10,-4,2,6,1,0,-4
1628231408.6923122,-3,-10,-3,-2,-4,3,5,-3
1628231408.6942132,5,0,0,-3,-4,-11,-4,0
1628231408.7083006,8,9,4,-2,-9,-10,-6,0
1628231408.7104533,-4,-6,-3,-7,-2,6,1,-3
1628231408.7134507,1,2,4,2,-5,-4,-3,3
1628231408.7154646,3,7,3,-2,5,-7,0,0
1628231408.7242525,-10,-10,-6,-7,5,10,2,-6
1628231408.7263658,-6,-5,-7,-1,1,3,2,0
1628231408.729593,7,11,3,-1,-14,-9,-10,4
1628231408.731593,-5,-5,-8,-1,-2,5,4,-4
1628231408.7449303,-7,-12,-12,-1,0,14,1,-9
1628231408.7469952,1,-8,-2,-4,-2,11,4,-4
1628231408.7522755,2,8,0,2,-3,-3,-1,5
1628231408.754353,-6,-10,-7,1,3,5,-2,-3
1628231408.7679713,4,-2,3,-6,-5,-13,-10,1
1628231408.7699983,12,11,10,-1,-8,-19,-9,7
1628231408.772499,4,11,8,1,0,-12,-1,4
1628231408.7743857,0,2,0,-1,-3,1,1,1
1628231408.7904668,6,8,11,-1,-9,-6,-5,6
1628231408.792502,-5,-1,-7,-5,-1,-3,-2,-2
1628231408.7950785,-20,-28,-18,-9,13,25,2,-18
1628231408.7969022,-15,-8,-20,-8,3,11,5,-18
1628231408.8062353,5,-1,-1,-6,-1,-4,2,0
1628231408.808103,-5,-6,-10,-9,-1,2,2,-13
1628231408.8125684,4,-4,-1,-4,-5,-5,-4,-1
1628231408.814604,18,21,17,6,-9,-22,-8,8
1628231408.8278484,14,6,20,6,-13,-10,-8,17
1628231408.8296769,-1,3,1,1,1,-1,-5,3
1628231408.8321571,2,3,11,2,-7,-4,-6,12
1628231408.8341887,-4,-4,-2,-3,-5,-2,1,-4
1628231408.844226,-30,-29,-25,-9,11,26,8,-13
1628231408.8462698,-12,-9,-18,-7,16,9,10,-25
1628231408.8498693,-5,-4,-9,-4,-4,1,0,-4
1628231408.8518436,-8,-4,-12,-16,2,0,2,-6
1628231408.8647766,2,5,-3,2,-3,-4,0,-2
1628231408.866804,18,26,16,3,-7,-24,-10,9
1628231408.8720648,13,8,16,5,-12,-8,-9,14
1628231408.873992,3,7,6,2,-4,-3,-5,4
1628231408.888137,8,1,8,2,-5,-10,-6,4
1628231408.8902361,0,-4,-1,-2,-4,9,-1,1
1628231408.892792,-25,-31,-24,-3,6,24,10,-11
1628231408.894611,-7,-7,-13,0,11,6,7,-11
1628231408.9035919,-8,-3,-1,-1,3,5,1,-5
1628231408.905448,-6,-3,-12,-3,1,2,2,-4
1628231408.9096735,6,6,-1,-5,-5,-10,-3,1
1628231408.9115655,19,21,9,0,-9,-17,-5,13
1628231408.9247859,10,6,9,3,-7,-5,-9,10
1628231408.9267628,-1,2,1,0,-4,-3,3,6
1628231408.9406793,4,2,3,3,2,1,-2,2
1628231408.9427786,-8,-11,-2,1,4,6,3,-1
1628231408.9495282,-11,-12,-12,-6,-2,7,6,-10
1628231408.9528203,-3,-1,-9,1,4,3,14,-12
1628231408.9562798,-6,-3,-2,6,8,4,0,-4
1628231408.9583642,-5,-1,0,-3,5,-1,6,-8
1628231408.9634836,2,4,3,4,0,2,1,0
1628231408.9652596,10,12,8,0,-6,-15,-9,2
1628231408.9696248,6,6,9,0,-4,-7,-8,9
1628231408.9714055,2,-1,3,2,-2,0,-2,-1
1628231408.986112,-1,-2,2,-3,-2,-7,-7,2
1628231408.9882836,-4,-8,-5,0,-2,2,0,0
1628231409.000289,1,-2,-2,-4,-9,2,3,-5
1628231409.002153,-1,-2,-6,-6,1,0,4,-3
1628231409.0079312,-2,-5,-10,1,0,1,1,-9
1628231409.0096362,-5,-5,-6,0,1,10,3,-8
1628231409.0129335,-7,-5,-2,-1,1,3,-1,-7
1628231409.0159683,8,12,9,-4,-5,-9,-7,3
1628231409.0236707,1,3,4,4,1,-2,-5,0
1628231409.0255537,-3,-3,-9,-6,-5,-1,1,-2
1628231409.029553,15,15,10,6,-4,-16,-6,8
1628231409.0314336,6,-1,1,6,0,-4,1,3
1628231409.0480282,-4,1,1,-4,-5,-1,1,-4
1628231409.0514894,1,2,7,-5,-10,-4,-2,2
1628231409.055438,-4,1,0,-7,-3,-4,-2,-8
1628231409.0575948,-25,-29,-18,-12,5,23,6,-19
1628231409.0683215,-7,2,-10,0,13,7,7,-3
1628231409.0704715,4,4,-1,1,2,-9,-8,3
1628231409.0729465,-3,-4,-8,-4,2,3,0,-4
1628231409.074837,-4,-2,-6,1,-2,4,3,-2
1628231409.086087,17,27,16,1,-12,-22,-12,15
1628231409.088269,3,1,11,2,-9,-5,-5,6
1628231409.0912194,1,-3,6,4,2,-1,3,0
1628231409.0931032,3,7,10,-2,-10,-5,-9,3
1628231409.1146708,0,-1,0,0,-4,-5,-3,1
1628231409.1180592,-21,-28,-18,-12,7,20,12,-15
1628231409.1222267,-2,-1,-5,-2,5,2,-1,-10
1628231409.124348,7,2,1,5,4,-9,-2,2
1628231409.1279776,-9,-9,-12,-10,0,3,0,-9
1628231409.129834,1,1,-3,1,4,0,4,-4
1628231409.1324801,21,30,16,8,-17,-24,-9,18
1628231409.134357,5,1,-2,7,-6,-1,-6,10
1628231409.1442904,-2,-4,-7,-5,-4,11,6,-3
1628231409.1473744,0,-5,2,-8,-5,7,-2,0
1628231409.1518972,-1,-1,4,-2,-7,5,3,-4
1628231409.1546698,-22,-23,-14,-12,3,18,10,-10
1628231409.1648626,3,-1,0,-4,4,-1,2,-10
1628231409.1668873,6,8,3,4,3,-5,-2,-3
1628231409.1720881,3,5,-2,-5,5,-5,4,-4
1628231409.1740365,1,8,-5,-4,1,-2,-7,-3
1628231409.1885817,17,19,18,9,-6,-16,-7,14
1628231409.190574,3,2,2,6,3,0,-2,10
1628231409.1930919,-8,-12,-7,-4,3,9,-2,-5
1628231409.1949873,-5,-4,-10,-6,4,7,1,-16
1628231409.2035701,0,-8,0,-4,-1,1,0,2
1628231409.2052646,-9,-15,-18,-10,2,4,1,-13
1628231409.2098532,-4,-3,-4,-6,-4,2,6,-5
1628231409.2115889,9,4,6,1,-2,-7,-5,3
1628231409.2246654,9,7,10,2,-5,-6,-3,3
1628231409.2266204,1,4,4,0,-5,-1,2,-1
1628231409.2321925,12,12,9,0,-5,-12,-13,5
1628231409.2340558,-1,-2,3,0,-5,-7,-2,-1
1628231409.247907,-11,-14,-14,-2,3,12,-2,-5
1628231409.2498727,-5,-4,-9,2,8,4,3,-4
1628231409.252608,-7,-2,-3,0,1,3,3,-1
1628231409.2547233,-12,-5,-6,-4,-3,2,1,-5
1628231409.2636395,-6,-5,-5,-12,-6,-1,-2,-5
1628231409.2654815,3,9,4,3,2,-11,-8,3
1628231409.2697487,6,2,6,2,-2,-1,3,6
1628231409.27157,6,6,-2,2,0,-1,-1,4
1628231409.2848501,12,9,8,3,-1,-12,-8,7
1628231409.2872615,1,3,1,-2,-4,1,-6,0
1628231409.2919934,-11,-12,-9,-4,-4,8,4,-2
1628231409.2938435,1,4,-1,0,-2,-1,3,2
1628231409.3078296,-2,-4,-3,-4,1,6,2,-3
1628231409.3097253,-8,-8,-5,-9,-4,2,7,-10
1628231409.3122652,5,-3,3,1,2,-8,2,3
1628231409.314351,3,6,5,-2,1,-7,-1,5
1628231409.3236148,-2,-3,2,4,-1,4,2,6
1628231409.3253095,5,3,6,2,-6,-6,-6,1
1628231409.3295848,8,5,1,-2,2,-6,-3,5
1628231409.3313577,-6,-6,-2,-3,4,5,4,-5
1628231409.345126,-7,-4,-8,-2,5,-2,3,-3
1628231409.3471706,4,10,-1,-5,-5,-7,0,5
1628231409.352544,-11,0,-9,-7,-3,0,0,-5
1628231409.3547556,1,-3,-6,-6,-8,8,2,-5
1628231409.36785,3,7,1,4,-9,-9,-2,3
1628231409.3698697,10,7,4,2,-6,-8,-2,4
1628231409.3725815,-6,-8,-4,-4,5,6,-3,-2
1628231409.3743994,4,6,5,1,-2,-9,-4,-1
1628231409.383681,10,6,10,2,3,-6,-6,3
1628231409.3859193,-13,-6,-9,-10,-1,4,2,-8
1628231409.389736,-4,-1,-5,-5,-2,-1,-1,-10
1628231409.3916073,5,8,-1,1,-3,-7,-5,4
1628231409.4046836,-5,-4,-6,1,-4,3,0,-4
1628231409.406589,-9,-14,-8,1,8,12,4,1
1628231409.4121895,-3,-10,-6,0,1,14,1,-7
1628231409.414121,2,-1,4,2,-2,-1,-3,3
1628231409.4280498,-6,-8,-7,-7,-1,6,2,-10
1628231409.4299102,2,0,2,2,-2,-2,-5,-5
1628231409.4326298,15,16,10,4,-5,-13,-11,9
1628231409.4346893,12,10,10,2,-6,-11,-2,12
1628231409.444135,0,0,-3,-5,-9,-3,2,-4
1628231409.4461677,4,9,7,5,-6,-6,-6,9
1628231409.4493864,-3,-5,-7,1,1,3,0,-1
1628231409.4514987,-26,-27,-22,-6,6,24,5,-20
1628231409.4649434,-15,-7,-22,-6,13,14,9,-18
1628231409.4668489,1,5,0,7,5,1,5,2
1628231409.472108,-1,-4,-8,-3,2,-3,0,-6
1628231409.4739835,2,2,6,-1,-1,-3,0,2
1628231409.4880335,21,25,17,1,-9,-21,-5,6
1628231409.4900067,13,6,18,6,-8,-11,-7,16
1628231409.4925697,1,4,1,1,-5,-8,-1,-1
1628231409.494455,5,2,9,3,-9,-8,-7,12
1628231409.5038207,-3,-4,5,-4,-1,2,-2,-1
1628231409.5056634,-29,-31,-23,-8,5,27,7,-23
1628231409.510153,-12,-8,-17,0,18,9,12,-22
1628231409.5120316,-1,-7,-2,1,6,-2,-2,-1
1628231409.5250218,-7,-3,-16,-8,5,5,7,-6
1628231409.5270603,1,-4,-1,2,-1,-5,2,5
1628231409.5322347,19,21,14,5,-4,-15,-5,15
1628231409.534301,10,7,15,6,-11,-8,-9,16
1628231409.5480046,5,7,7,5,1,0,4,0
1628231409.5500002,7,2,3,-3,-6,-4,-7,3
1628231409.5529377,-6,-10,-3,-4,-1,10,4,2
1628231409.5551064,-19,-25,-21,-9,3,19,6,-12
1628231409.571965,-8,-8,-13,-5,9,3,6,-11
1628231409.5740175,-2,1,-8,-3,-4,-2,0,1
1628231409.5766613,-2,-2,-9,-5,4,0,5,-12
1628231409.5786786,1,2,1,4,8,-8,2,5
1628231409.5846603,13,13,11,9,3,-14,-9,7
1628231409.5867722,8,4,11,4,-8,-6,-9,12
1628231409.5921888,1,1,4,6,-5,-4,0,4
1628231409.594024,6,0,-1,-3,-2,0,-1,-4
1628231409.607471,0,-11,1,-5,-5,-2,-1,0
1628231409.6093335,-3,-12,-14,-4,0,9,4,-7
1628231409.6146784,-5,-1,-8,-4,0,3,10,-6
1628231409.6166248,-9,-4,-6,-4,-8,-2,1,-6
1628231409.6238217,-4,-1,-2,-1,2,4,4,-9
1628231409.6258311,1,11,5,-8,0,-6,-1,-2
1628231409.6295898,9,15,11,0,-5,-22,-11,6
1628231409.6314545,6,7,6,1,-5,-4,-7,7
1628231409.6449132,1,2,1,1,-4,-2,-1,8
1628231409.64698,1,2,3,2,2,-6,-3,10
1628231409.6525242,-6,-12,-8,-4,-1,4,-10,-8
1628231409.6546564,-3,-1,-2,-3,-3,4,0,-4
1628231409.6674683,-3,-3,-5,-1,0,2,5,1
1628231409.6696432,-3,-4,-1,2,1,-2,0,-9
1628231409.6746602,-6,-5,-8,-9,-3,11,5,-9
1628231409.6774518,-3,-6,-4,-3,6,9,1,-2
1628231409.6906338,5,11,8,-4,-6,-13,-13,-1
1628231409.692613,3,0,3,3,0,-1,-6,5
1628231409.6954794,3,2,3,-2,5,3,-5,4
1628231409.6974306,13,13,9,4,-6,-14,-7,8
1628231409.7046306,0,2,3,-4,-6,-6,-2,-1
1628231409.7066624,-4,-5,-1,2,1,6,5,2
1628231409.7120116,0,2,5,1,-5,-5,-2,5
1628231409.7139437,2,-2,-2,-1,3,-1,0,-2
1628231409.727603,-17,-20,-18,-4,9,19,8,-12
1628231409.7297986,-2,3,-10,-4,6,7,6,-11
1628231409.7345004,3,8,5,-2,-3,-11,-2,3
1628231409.736527,-6,-1,-7,2,4,-1,-8,-2
1628231409.7506487,-2,-4,-7,-2,-6,-1,0,1
1628231409.7527614,20,26,16,6,-12,-25,-10,10
1628231409.755689,5,0,4,0,-11,-2,-6,4
1628231409.7574067,-2,1,-1,0,-3,3,4,-5
1628231409.764604,8,5,7,0,-11,-4,-4,11
1628231409.7664695,-1,2,6,-3,-7,1,1,-1
1628231409.7719498,-24,-28,-18,-11,10,24,8,-15
1628231409.7744787,-3,-4,-10,-4,1,0,5,-9
1628231409.7876403,4,-1,-5,-3,-3,-2,-4,1
1628231409.7894304,-7,-6,-12,-6,2,-1,-3,-9
1628231409.7949648,-3,-1,-2,2,-2,-1,3,1
1628231409.7968152,20,26,18,9,-10,-20,-13,14
1628231409.8106573,-1,3,6,1,-7,-2,-6,4
1628231409.812695,-6,-9,-7,-6,1,6,0,7
1628231409.8153005,1,-6,-4,-4,-2,7,2,-2
1628231409.817425,-1,-1,2,-1,-2,3,-5,-2
1628231409.8246613,-20,-24,-17,-9,10,21,9,-12
1628231409.8265061,0,-5,-1,-5,-4,0,-1,-12
1628231409.8323157,6,10,1,-4,1,-9,-8,1
1628231409.834267,6,6,1,-3,0,-5,10,-2
1628231409.8476992,-1,-1,3,2,6,-3,2,0
1628231409.8495326,17,21,18,2,-15,-15,-12,9
1628231409.8548305,3,1,6,5,-3,-5,-5,5
1628231409.8567252,-9,-12,-8,-3,0,4,0,-5
1628231409.8704672,-7,-4,-12,0,12,6,1,-9
1628231409.8723447,2,1,-2,-1,0,8,0,1
1628231409.8749275,-17,-12,-7,-5,4,8,8,-10
1628231409.877132,-4,-9,-3,-5,-1,5,4,-3
1628231409.8849425,6,7,2,3,-1,-6,1,1
1628231409.887166,10,5,11,8,6,-7,-1,8
1628231409.8921974,7,2,4,-1,-2,0,0,-2
1628231409.8941667,14,10,15,0,-5,-10,-12,13
1628231409.9079366,6,0,4,0,-3,1,-3,5
1628231409.9100406,-13,-19,-10,-5,2,8,5,-9
1628231409.915,-4,-6,-12,1,-3,2,-3,-5
1628231409.9172173,-8,-3,-6,-3,5,2,5,-1
1628231409.9305964,-5,-3,-8,-4,0,5,5,-6
1628231409.9327023,-4,-7,-4,-3,-2,-1,-1,0
1628231409.935799,7,4,2,1,3,-7,-6,6
1628231409.9378505,5,1,7,3,-1,1,7,5
1628231409.9448395,-1,2,7,1,-2,-1,-3,-4
1628231409.9470246,12,9,9,2,-4,-9,-7,3
1628231409.952529,3,5,0,-2,-2,2,2,-1
1628231409.9547212,-9,-16,-11,0,4,9,1,-7
1628231409.9671855,0,4,-4,-1,-4,-6,-1,0
1628231409.9692729,-5,-2,-5,1,-1,1,0,-6
1628231409.9748917,-6,-10,-2,-4,3,7,3,-5
1628231409.9768784,1,5,3,-3,-5,-8,-5,-2
1628231409.9920495,10,7,5,2,-2,-6,-6,7
1628231409.9953103,-3,-5,-1,0,3,2,2,3
1628231409.9995298,0,3,-2,0,-5,-5,-1,-4
1628231410.0026686,12,7,12,3,0,-5,-4,2
1628231410.008085,-5,-8,-7,-2,4,7,2,-7
1628231410.011269,-13,-8,-8,-2,3,5,4,-10
1628231410.0147069,6,10,4,3,-4,-7,-1,2
1628231410.0173671,-7,-4,-6,-2,-1,3,-2,0
1628231410.027526,-10,-8,-7,-3,1,7,4,-10
1628231410.0293481,5,11,8,0,-5,-10,-5,5
1628231410.0351138,10,6,5,4,-3,-8,-2,7
1628231410.0372887,-7,-8,-2,0,2,5,1,1
1628231410.0504692,7,4,0,4,3,-6,-1,4
1628231410.0524304,8,5,2,0,5,-11,-8,1
1628231410.0551362,-8,-3,-6,-7,-3,0,-3,-11
1628231410.057013,-2,-5,-4,-1,-2,4,0,-5
1628231410.073038,5,9,3,1,-15,-8,-3,6
1628231410.076114,-6,-2,-6,0,-2,-1,2,-7
1628231410.0806491,-14,-21,-11,-1,4,16,6,-4
1628231410.0837684,-13,-8,-13,-4,5,14,4,-8
1628231410.0876048,-1,-1,2,-2,-1,-2,-3,4
1628231410.0895107,-5,-8,-10,-2,1,8,2,-7
1628231410.0951166,2,6,0,1,3,-8,-4,0
1628231410.0971835,16,19,5,-1,-9,-21,-9,5
1628231410.112215,15,9,22,4,-5,-11,-5,7
1628231410.1143475,3,3,4,2,4,4,0,0
1628231410.1172256,3,7,8,4,-3,-6,-3,11
1628231410.1193802,0,-2,0,2,-4,2,4,-2
1628231410.1245599,-28,-31,-18,-10,10,23,8,-18
1628231410.1264796,-12,-7,-22,-6,7,10,7,-19
1628231410.1322322,1,0,1,4,5,0,-5,-1
1628231410.1347828,-7,-4,-17,-11,0,12,3,-11
1628231410.147916,-1,4,0,0,-5,-9,0,-2
1628231410.1502874,22,21,19,5,-11,-21,-7,12
1628231410.1546774,15,8,19,5,-13,-11,-2,17
1628231410.1565502,-2,4,3,1,-5,-8,-2,-3
1628231410.1705728,3,2,7,0,-4,-6,-6,9
1628231410.1725957,-3,-3,0,-2,-7,1,1,1
1628231410.1754386,-25,-29,-22,-5,5,28,8,-8
1628231410.1774352,-7,-5,-15,-2,14,6,7,-19
1628231410.1854718,0,-3,-6,2,3,6,-2,-2
1628231410.1875494,-7,-5,-11,-15,-3,0,3,-5
1628231410.192237,0,0,-5,-1,-3,-4,-3,-4
1628231410.1942506,19,22,15,6,-5,-21,-8,12
1628231410.2075694,10,10,13,8,-8,-7,-9,17
1628231410.2095685,1,2,-1,3,0,0,-1,0
1628231410.2147696,7,3,7,2,-2,-6,1,6
1628231410.2169962,-3,-7,3,-6,-8,3,1,-2
1628231410.2304745,-17,-20,-17,-4,8,15,10,-10
1628231410.232528,-7,-7,-10,-5,7,6,9,-13
1628231410.2358594,-9,-3,-4,0,4,4,0,-7
1628231410.2380593,-2,-2,-7,-7,-1,1,7,-7
1628231410.2455897,4,2,-1,-2,-2,-8,-3,-3
1628231410.247412,16,21,14,6,-3,-18,-6,4
1628231410.2602775,8,7,12,3,-8,-7,-11,10
1628231410.2620625,3,3,5,1,2,-5,0,0
1628231410.2670093,2,2,-2,-1,-5,-1,-6,1
1628231410.2688293,-8,-10,-6,2,2,6,4,2
1628231410.275535,-10,-10,-8,-1,-2,8,6,-10
1628231410.277258,-5,-3,-8,-1,5,0,4,-5
1628231410.2903142,-7,-1,-6,-9,1,3,0,-5
1628231410.2920418,-2,0,-5,-5,-1,1,2,-7
1628231410.2944303,5,6,0,-2,1,-4,-2,0
1628231410.2961533,11,14,7,2,-1,-10,-9,6
1628231410.3044918,3,3,6,3,-3,-8,-11,3
1628231410.3062272,-3,1,5,-3,-2,-3,-1,1
1628231410.31207,7,-2,4,3,-3,-6,-3,6
1628231410.3141093,-7,-4,-5,-6,-1,1,-5,2
1628231410.3275523,-8,-1,1,3,-3,6,6,-1
1628231410.32942,-3,-2,-5,-4,-6,2,4,-4
1628231410.3361585,-4,-2,-7,-5,1,-3,-1,-7
1628231410.338056,-7,-12,-10,-1,6,15,11,-15
1628231410.3506184,-1,-4,-8,-5,-5,5,2,-3
1628231410.352674,11,8,9,1,6,-11,-6,5
1628231410.35531,2,0,0,1,0,-3,-1,-1
1628231410.3569891,-5,-5,-2,1,-2,4,-2,4
1628231410.3645704,16,16,12,4,-6,-21,-11,8
1628231410.3663356,8,-1,4,8,-1,-3,-4,6
1628231410.380437,1,1,5,6,0,1,-3,-1
1628231410.3827162,3,0,5,-2,-11,-7,1,2
1628231410.387152,-1,0,-6,-2,1,1,1,-1
1628231410.3889546,-27,-30,-22,-8,11,22,6,-13
1628231410.3955479,-6,1,-11,-2,2,1,2,-11
1628231410.3973777,9,3,-2,-4,-1,-10,-1,1
1628231410.4104698,-4,-5,-6,-1,4,6,-1,-8
1628231410.4123673,-6,-2,-2,-2,3,-1,-3,-4
1628231410.4152522,22,26,14,8,-8,-21,-9,14
1628231410.4173381,4,1,10,6,-2,-7,-5,6
1628231410.4246447,-6,-7,0,-1,-1,4,5,-3
1628231410.4263916,7,4,8,-5,-11,-2,-1,3
1628231410.4319823,-2,-1,1,-9,-3,0,4,-3
1628231410.4337935,-23,-24,-21,-4,10,20,10,-14
1628231410.4471514,-6,-1,-6,-5,2,-4,5,-12
1628231410.4491997,-2,3,2,1,5,-8,-2,-2
1628231410.4553993,-9,-3,-12,-8,0,0,-1,-7
1628231410.457269,-2,-1,-5,0,-5,1,1,-4
1628231410.4703937,26,28,21,8,-10,-24,-10,12
1628231410.472404,9,2,4,1,-8,-4,-7,10
1628231410.4750185,-2,-8,-4,-3,-3,6,1,-3
1628231410.4768763,-8,-2,-7,-2,4,7,2,-7
1628231410.484661,-6,-8,-2,-6,-7,4,-4,-2
1628231410.4866564,-17,-21,-18,0,4,15,8,-15
1628231410.4921985,-3,1,-1,-2,0,0,3,-4
1628231410.4942312,11,7,3,-4,-8,-11,-6,2
1628231410.507353,9,6,6,2,5,-8,-1,0
1628231410.5095341,4,1,-3,-5,-6,0,2,-6
1628231410.516276,21,14,12,5,-9,-17,-9,12
1628231410.518311,3,2,3,1,3,-2,-6,7
1628231410.5301611,-14,-21,-15,-9,4,12,4,-8
1628231410.5321572,-5,-4,-11,-4,6,6,1,-9
1628231410.5380802,-10,-8,-5,1,2,9,0,3
1628231410.540091,-16,-10,-7,-10,-6,12,-1,-12
1628231410.544634,1,7,-1,-4,-4,-2,2,0
1628231410.5470026,7,8,6,-4,-3,-10,-8,0
1628231410.552368,7,6,11,-1,-10,-6,-4,1
1628231410.5542743,2,5,3,0,-11,-3,1,4
1628231410.5672097,16,8,11,6,-5,-12,-11,15
1628231410.5691252,2,3,6,4,-7,0,-1,2
1628231410.5755324,-11,-18,-14,-2,3,10,0,0
1628231410.5774395,-4,0,-7,-1,8,-1,0,-6
1628231410.5896401,-5,-4,-5,0,3,0,1,-1
1628231410.5915031,-5,-5,-9,-7,-5,3,5,-6
1628231410.598111,2,-1,-1,2,-3,-3,-1,2
1628231410.5999272,10,6,5,0,0,-9,-5,3
1628231410.6128845,2,2,7,0,-1,1,2,5
1628231410.6149535,-2,2,-1,1,-1,-8,-3,7
1628231410.617663,8,6,7,0,-5,-12,-4,2
1628231410.6195958,-5,-5,-2,-5,-2,1,-1,-2
1628231410.6274977,-10,-8,-6,-3,-1,11,1,-10
1628231410.6293242,1,3,-3,0,-2,-4,-2,4
1628231410.6359515,-5,-4,-4,-5,4,6,0,-8
1628231410.6379952,-4,-7,-3,0,6,6,6,-3
1628231410.6501083,3,7,3,2,-6,0,3,2
1628231410.6529486,3,6,7,-3,-5,-9,-3,0
1628231410.657641,-5,-5,1,-2,0,4,-6,-1
1628231410.6595354,2,5,2,2,1,-3,-2,5
1628231410.6739671,5,4,5,2,1,-13,-5,6
1628231410.6773765,-7,-5,-10,-5,2,9,2,-8
1628231410.6820862,-3,-3,0,-2,2,7,5,-6
1628231410.6848168,7,13,2,-2,-9,-10,-4,-4
1628231410.688933,-3,-4,-5,1,6,8,3,-7
1628231410.6911037,-7,-7,-8,-5,-1,7,6,-7
1628231410.696776,9,2,10,5,-4,-2,1,2
1628231410.6994503,3,7,1,0,-7,-4,-5,7
1628231410.7093143,-8,-10,-5,-5,-3,4,-3,-5
1628231410.7114055,7,2,5,-6,-4,-4,-7,0
1628231410.7195203,8,7,2,-4,-6,-10,-5,3
1628231410.7220514,-8,-1,-5,-1,2,-4,2,-2
1628231410.7330287,2,2,-6,2,-1,2,1,-8
1628231410.73472,5,8,5,3,-5,-5,-9,6
1628231410.736803,-5,-6,-5,-4,2,3,3,-6
1628231410.7383194,-13,-22,-12,-3,7,19,6,-11
1628231410.7481108,-18,-9,-16,-10,2,11,3,-14
1628231410.7508833,-1,2,1,6,6,-1,2,1
1628231410.755393,-8,-5,-11,-5,3,3,0,-12
1628231410.757422,9,0,2,4,-5,-2,-3,3
1628231410.769638,14,22,8,0,-1,-24,-8,10
1628231410.7717898,15,6,20,9,-6,-7,-1,2
1628231410.7781298,0,3,3,-3,-6,-6,-1,-2
1628231410.7814527,5,8,11,4,-11,-5,-7,10
1628231410.7928057,-4,-4,1,-3,-5,2,-2,-3
1628231410.7949157,-21,-34,-26,-9,10,25,10,-16
1628231410.797595,-13,-3,-21,-9,14,7,2,-22
1628231410.799375,0,-1,2,-1,1,1,-2,-4
1628231410.8071465,-7,-3,-12,-10,5,6,0,-9
1628231410.808994,-4,4,-1,2,-1,-3,-4,4
1628231410.815596,12,21,15,2,-6,-21,-3,11
1628231410.8175063,15,6,20,11,-8,-8,-5,21
1628231410.8301916,2,2,4,0,-7,-8,-2,-3
1628231410.8321602,9,4,15,4,-6,-6,-11,10
1628231410.8381135,2,-1,-5,-3,-3,3,1,0
1628231410.8401794,-24,-28,-18,-7,8,24,9,-14
1628231410.8534017,-10,-4,-14,1,11,7,8,-15
1628231410.8552973,-3,-6,-2,-2,5,2,4,-4
1628231410.857789,-9,-3,-10,-5,3,4,10,0
1628231410.8597584,1,5,-4,-7,-2,-7,-1,-1
1628231410.8670182,25,20,16,4,-13,-20,-7,12
1628231410.8689322,10,10,11,8,-16,-8,-8,16
1628231410.8754563,1,0,2,1,0,-5,0,2
1628231410.8773115,6,3,4,-4,-8,-5,-4,-5
1628231410.890847,1,0,5,0,0,1,-3,0
1628231410.8933914,-19,-19,-16,-9,0,11,-1,-11
1628231410.8972123,-5,-3,-6,3,8,5,7,-9
1628231410.8986115,-5,-5,-5,-3,4,-2,2,-6
1628231410.912977,-2,-8,-5,-3,4,2,5,-9
1628231410.9145012,4,4,-3,-1,-2,0,2,1
1628231410.9168165,18,21,13,4,-7,-11,-8,8
1628231410.918719,7,7,8,2,-5,-5,-5,14
1628231410.927055,4,-1,3,4,-2,3,-3,4
1628231410.9294052,-3,0,-4,-1,-3,-1,-7,1
1628231410.9363804,-4,-7,-2,0,-2,3,-4,1
1628231410.9395554,-10,-8,-3,4,-2,3,3,-7
1628231410.9500787,-8,-6,-6,-3,1,0,4,-6
1628231410.9528286,-3,-2,-7,0,6,1,2,1
1628231410.9583142,-2,-2,-2,-5,2,2,3,-5
1628231410.9602492,0,6,-3,0,2,1,-4,-1
1628231410.9734483,17,10,6,4,-4,-17,-8,9
1628231410.9756026,5,3,5,2,2,-4,0,5
1628231410.978475,-2,-6,-3,-2,-2,-2,-2,1
1628231410.9806006,7,0,3,2,-1,-6,-8,4
1628231410.9871728,-4,-5,-5,-4,-6,-1,-3,-1
1628231410.9893131,-5,-1,0,5,2,7,3,-2
1628231410.9954083,-3,-3,-2,-2,-9,2,0,-2
1628231410.997391,-3,-7,0,-4,3,0,0,2
