1619049613.4345715,-8984,7379,8201,8124,2027,-17,186,-75,-37,-22
1619049613.4353566,-8975,7387,8201,8127,2016,-18,177,-53,-40,-24
1619049613.436107,-8971,7390,8203,8126,1999,-13,187,-16,-32,-19
1619049613.4672554,-8969,7391,8207,8124,1997,-10,186,12,-25,-13
1619049613.477227,-8969,7389,8212,8120,1991,-2,190,28,-26,-12
1619049613.4925792,-8969,7388,8217,8116,1998,7,188,30,-25,-4
1619049613.5037463,-8969,7388,8217,8117,2007,14,183,10,-16,4
1619049613.5263178,-8967,7392,8215,8118,2006,15,174,-28,-4,12
1619049613.5565808,-8965,7398,8208,8121,2017,2,175,-53,8,17
1619049613.569788,-8964,7404,8200,8124,2025,-11,167,-50,20,17
1619049613.5916476,-8968,7406,8192,8125,2007,-26,192,-21,29,18
1619049613.605812,-8975,7404,8191,8123,2009,-16,172,27,32,12
1619049613.6292987,-8983,7394,8195,8117,2003,3,166,77,34,3
1619049613.643253,-8992,7382,8202,8112,2007,22,156,91,37,-2
1619049613.6762173,-8997,7372,8208,8109,2021,30,162,68,32,-2
1619049613.6896238,-8999,7367,8211,8108,2016,24,154,29,26,-2
1619049613.7030363,-8999,7366,8210,8110,1996,15,175,-4,20,-6
1619049613.7263756,-8999,7366,8210,8110,1994,9,172,-12,8,-13
1619049613.7512572,-8999,7366,8211,8110,1999,12,174,-13,-2,-12
1619049613.763616,-8999,7366,8211,8110,2001,-4,162,-13,-10,-9
1619049613.78565,-8999,7367,8211,8109,1995,-16,179,-5,-9,-13
1619049613.8096204,-8999,7367,8210,8109,2006,-12,191,4,-15,-9
1619049613.8289387,-8999,7367,8211,8109,2001,6,181,0,-14,8
1619049613.8609273,-8997,7373,8208,8108,2003,12,177,-31,-9,26
1619049613.8703444,-8997,7380,8203,8107,2008,-9,167,-31,0,29
1619049613.883486,-9002,7382,8200,8102,2006,-30,194,11,4,27
1619049613.911215,-9010,7381,8201,8093,2016,-21,183,52,1,32
1619049613.943333,-9018,7378,8202,8086,2008,-3,187,53,7,32
1619049613.9533818,-9024,7376,8203,8081,1995,2,182,38,11,29
1619049613.969203,-9029,7375,8203,8076,1988,8,168,29,12,28
1619049613.9892645,-9033,7375,8203,8071,2005,-3,166,21,9,33
1619049614.0031478,-9039,7376,8200,8067,2014,-12,188,18,15,34
1619049614.0293376,-9046,7376,8198,8062,2007,-11,186,23,11,38
1619049614.0497408,-9052,7376,8198,8054,2004,-21,179,39,5,35
1619049614.0660958,-9060,7374,8199,8047,1991,-9,194,47,2,39
1619049614.0891047,-9059,7380,8200,8041,1985,13,213,-3,-53,39
1619049614.110111,-9049,7391,8198,8043,2033,71,168,-77,-36,53
1619049614.1465404,-9038,7397,8196,8052,1995,15,137,-74,7,-25
1619049614.1563504,-9012,7403,8216,8056,1981,69,125,-47,-111,-74
1619049614.1765268,-8979,7403,8264,8044,2000,61,-51,79,-155,-144
1619049614.1913576,-8942,7374,8334,8039,1972,156,18,196,-181,-268
1619049614.2059472,-8892,7345,8387,8066,1989,271,91,20,-126,-305
1619049614.2280452,-8826,7359,8390,8122,1963,121,121,-365,-86,-279
1619049614.2462938,-8748,7427,8329,8207,2035,-118,274,-806,-83,-217
1619049614.2694142,-8701,7520,8228,8275,2087,-268,345,-860,-28,15
1619049614.3033285,-8679,7615,8144,8294,2021,-298,221,-614,-75,186
1619049614.3129542,-8653,7714,8049,8322,2078,-233,292,-698,-74,236
1619049614.3312783,-8681,7809,7952,8297,2096,-424,331,-402,-71,453
1619049614.373566,-8763,7850,7920,8203,2008,-249,217,270,-83,602
1619049614.3909073,-8831,7868,7915,8117,2056,-50,143,342,-82,526
1619049614.4013946,-8903,7894,7903,8025,2005,-124,151,334,-92,569
1619049614.414683,-8988,7903,7910,7912,1946,-94,-11,527,-45,595
1619049614.428668,-9069,7907,7910,7815,2046,-116,68,472,-16,551
1619049614.449732,-9155,7910,7902,7719,2022,-151,101,461,14,563
1619049614.4726121,-9221,7912,7912,7628,1959,-57,-8,444,-27,510
1619049614.4972112,-9271,7924,7911,7557,2035,-111,20,289,-26,442
1619049614.509748,-9319,7944,7898,7489,2007,-155,69,218,-31,465
1619049614.5321884,-9364,7961,7892,7421,2002,-198,87,234,-66,420
1619049614.547644,-9403,7968,7898,7358,2008,-192,52,270,-65,333
1619049614.5799205,-9443,7967,7910,7294,1989,-198,51,316,-62,306
1619049614.6207128,-9483,7961,7924,7233,2044,-234,101,329,-77,267
1619049614.630802,-9520,7955,7940,7175,2011,-209,127,315,-100,258
1619049614.6456246,-9529,7960,7953,7142,1980,-106,83,126,-103,203
1619049614.6641614,-9521,7976,7953,7135,1998,-144,97,-60,-74,125
1619049614.6738722,-9517,7997,7939,7132,1997,-274,160,-109,-51,105
1619049614.7166276,-9531,7995,7942,7112,2013,-330,169,100,-55,73
1619049614.7464871,-9550,7974,7962,7088,2008,-247,146,230,-52,37
1619049614.7562068,-9562,7955,7986,7067,1988,-228,109,205,-56,15
1619049614.7656136,-9562,7945,8002,7060,2000,-203,90,90,-38,1
1619049614.803229,-9551,7949,7999,7073,2009,-217,154,-92,-21,-4
1619049614.8158977,-9540,7954,7993,7090,2002,-225,162,-116,-10,-19
1619049614.825154,-9521,7969,7984,7108,1973,-239,124,-173,-18,-15
1619049614.8347068,-9505,7983,7970,7128,2017,-326,135,-178,4,-52
1619049614.8621097,-9507,7981,7964,7136,2029,-339,161,-29,22,-36
1619049614.8714397,-9514,7965,7971,7136,2002,-278,127,87,29,-41
1619049614.9047651,-9513,7957,7971,7147,1998,-267,100,-9,47,-51
1619049614.9147232,-9499,7961,7968,7163,1971,-221,61,-96,33,-40
1619049614.9509676,-9482,7979,7952,7184,2028,-322,93,-201,30,-37
1619049614.9696496,-9474,7989,7939,7198,2020,-332,107,-120,32,-29
1619049614.9983048,-9465,7992,7938,7207,1997,-268,82,-63,10,-38
1619049615.0075824,-9455,8003,7931,7217,2001,-297,78,-105,15,-18
1619049615.0290859,-9442,8021,7919,7227,1998,-310,74,-147,4,1
1619049615.038465,-9429,8033,7913,7237,2009,-324,84,-114,-7,-45
1619049615.057863,-9425,8038,7911,7240,2013,-341,87,-35,2,-30
1619049615.0799234,-9433,8029,7917,7231,1987,-302,83,89,9,-10
1619049615.0919802,-9433,8025,7929,7224,1981,-254,65,66,-25,-5
1619049615.1099415,-9424,8035,7928,7225,1999,-273,62,-58,-20,6
1619049615.1404173,-9416,8048,7920,7229,2018,-307,84,-96,-10,10
1619049615.1499543,-9409,8058,7916,7232,2006,-295,93,-69,-18,4
1619049615.1752644,-9408,8066,7914,7226,1996,-320,96,-19,-34,19
1619049615.223874,-9410,8070,7917,7216,2011,-286,98,33,-43,39
1619049615.233851,-9412,8073,7917,7209,2017,-289,104,10,-27,35
1619049615.2484338,-9412,8082,7914,7203,2018,-303,85,-20,-20,43
1619049615.279071,-9413,8087,7911,7199,2012,-292,96,-12,-15,37
1619049615.2888863,-9417,8087,7914,7192,2004,-285,98,36,-22,29
1619049615.29843,-9424,8090,7914,7178,1992,-305,100,52,-31,59
1619049615.3309693,-9427,8095,7912,7170,2002,-272,107,2,-28,66
1619049615.3440733,-9421,8104,7907,7173,2004,-267,74,-63,-6,28
1619049615.3624232,-9417,8112,7901,7177,2002,-289,89,-65,1,17
1619049615.3718772,-9420,8114,7899,7173,2008,-319,103,6,-12,23
1619049615.3865128,-9427,8111,7905,7162,2005,-295,93,73,-23,29
1619049615.4184978,-9426,8111,7908,7159,1987,-228,79,12,-18,34
1619049615.4563386,-9412,8123,7899,7173,1995,-275,88,-140,1,-5
1619049615.4659388,-9402,8138,7885,7185,2003,-324,106,-139,2,-1
1619049615.4822705,-9403,8138,7885,7184,2000,-345,94,-5,-3,2
1619049615.4993966,-9412,8130,7890,7175,2010,-315,90,88,2,9
1619049615.5089564,-9414,8127,7893,7173,1997,-284,72,29,7,2
1619049615.534881,-9409,8130,7891,7179,2000,-299,72,-43,12,-19
1619049615.559808,-9408,8133,7885,7183,2004,-325,91,-34,14,-4
1619049615.581984,-9412,8137,7881,7178,2009,-338,95,0,0,31
1619049615.5913815,-9412,8137,7881,7177,1986,-308,74,7,10,7
1619049615.612771,-9412,8141,7877,7178,1988,-322,73,-25,12,7
1619049615.6478982,-9415,8144,7874,7174,1997,-323,76,6,3,24
1619049615.6691458,-9419,8145,7873,7169,2030,-326,89,17,-4,25
1619049615.678784,-9421,8152,7865,7166,2021,-330,93,-29,2,43
1619049615.7254846,-9418,8162,7857,7168,2017,-319,77,-64,6,33
1619049615.738334,-9417,8172,7848,7167,1987,-349,77,-53,6,29
1619049615.7604067,-9427,8175,7844,7155,1994,-350,82,41,-1,64
1619049615.765607,-9436,8173,7846,7143,1986,-300,84,70,-6,59
1619049615.782254,-9440,8174,7843,7140,1997,-294,80,8,11,41
1619049615.8080082,-9438,8180,7840,7140,1989,-303,70,-33,2,25
1619049615.8246603,-9437,8180,7840,7140,2010,-325,82,-8,2,12
1619049615.8379807,-9443,8174,7845,7135,1991,-311,82,61,2,7
1619049615.8606262,-9444,8172,7849,7130,1992,-318,57,33,-5,1
1619049615.8899684,-9444,8169,7851,7132,2006,-310,88,10,6,-18
1619049615.939036,-9441,8167,7850,7138,2004,-301,107,-26,7,-17
1619049615.949335,-9441,8167,7850,7138,1979,-317,102,3,1,-16
1619049615.9587097,-9437,8171,7849,7141,1979,-324,78,-32,-6,-11
1619049615.963749,-9438,8171,7848,7141,2018,-343,104,-12,5,-13
1619049615.997607,-9443,8164,7850,7139,2005,-338,99,48,18,-16
1619049616.033966,-9450,8153,7856,7136,2000,-297,92,78,16,-12
1619049616.0441403,-9451,8145,7860,7139,1988,-262,76,26,25,-10
1619049616.05957,-9450,8145,7848,7155,2032,-299,92,-50,51,6
1619049616.085292,-9453,8140,7839,7166,2040,-318,100,-29,78,-13
1619049616.115769,-9458,8130,7834,7176,2061,-324,95,9,90,-38
1619049616.1251335,-9471,8113,7831,7181,2016,-338,101,71,99,-35
1619049616.3892515,-9485,8098,7828,7183,2011,-344,100,74,94,-21
1619049616.3997562,-9498,8084,7823,7187,2018,-337,99,64,108,-19
1619049616.4406507,-9736,7685,8044,7062,1965,-136,72,-126,-100,-358
1619049616.4585264,-9677,7704,8056,7109,1997,-320,156,-317,-129,-306
1619049616.4883697,-9627,7734,8051,7148,2008,-389,205,-350,-126,-231
1619049616.5030673,-9577,7769,8040,7191,2022,-386,207,-391,-108,-209
1619049616.539156,-9529,7805,8019,7239,2032,-343,207,-429,-65,-177
1619049616.574802,-9497,7827,7997,7282,2028,-330,244,-336,-15,-140
1619049616.588288,-9487,7825,7989,7305,2002,-317,242,-105,6,-127
1619049616.5934212,-9494,7798,8002,7310,2001,-260,219,120,15,-122
1619049616.6103506,-9511,7711,8057,7320,1985,-120,151,184,47,-169
1619049616.6201377,-9494,7693,8069,7349,1972,-106,123,-42,46,-166
1619049616.6357532,-9463,7705,8054,7392,1977,-168,125,-276,55,-127
1619049616.6618993,-9434,7730,8024,7436,1995,-252,158,-355,69,-98
1619049616.6936135,-9415,7749,7995,7471,2009,-298,167,-274,76,-85
1619049616.7190733,-9411,7751,7981,7489,2022,-297,170,-100,71,-79
1619049616.7288375,-9418,7732,7985,7494,2017,-260,167,77,63,-94
1619049616.7393177,-9427,7703,8001,7497,2003,-187,166,147,53,-108
1619049616.7520342,-9429,7681,8017,7500,2012,-165,129,111,39,-100
1619049616.791215,-9424,7670,8025,7509,2011,-166,131,19,30,-79
1619049616.8007836,-9415,7672,8022,7520,2013,-191,124,-66,29,-53
1619049616.8312132,-9407,7676,8021,7529,2016,-202,132,-59,14,-53
1619049616.8406875,-9399,7676,8023,7535,2006,-202,146,-34,-1,-57
1619049616.8594222,-9392,7678,8026,7539,2011,-189,138,-24,-12,-44
1619049616.8726184,-9386,7679,8030,7541,2015,-183,153,-16,-20,-33
1619049616.8949718,-9382,7684,8032,7540,2008,-200,158,-20,-32,-15
1619049616.9173403,-9380,7690,8034,7534,2006,-204,158,2,-42,10
1619049616.9396,-9381,7694,8038,7524,2010,-208,150,28,-43,16
1619049616.954942,-9380,7697,8043,7516,2008,-180,147,26,-47,18
1619049616.9773304,-9378,7703,8048,7508,2008,-161,147,4,-53,31
1619049617.0001595,-9373,7715,8046,7503,2012,-165,156,-40,-54,49
1619049617.0145638,-9368,7730,8042,7499,2005,-174,155,-64,-53,55
1619049617.0567117,-9363,7746,8036,7495,1991,-183,148,-71,-50,59
1619049617.066832,-9360,7761,8029,7491,1991,-181,154,-64,-46,67
1619049617.0829444,-9359,7776,8022,7484,1999,-200,162,-50,-45,73
1619049617.113817,-9361,7787,8016,7477,2004,-202,158,-28,-36,74
1619049617.1235075,-9365,7793,8014,7468,1997,-186,146,11,-24,63
1619049617.1431606,-9369,7793,8015,7461,2009,-170,139,33,-11,45
1619049617.170634,-9370,7791,8017,7460,2001,-136,139,11,-5,30
1619049617.1800995,-9365,7795,8015,7464,1996,-137,130,-45,-2,20
1619049617.1998177,-9352,7805,8010,7475,1994,-156,112,-106,-1,-5
1619049617.2250803,-9337,7819,8002,7489,2014,-194,115,-144,-4,-23
1619049617.2419257,-9327,7827,7995,7499,2023,-234,135,-100,3,-34
1619049617.2553866,-9324,7824,7997,7504,2019,-238,135,-1,6,-63
1619049617.2779787,-9325,7811,8008,7505,2011,-209,133,65,2,-75
1619049617.302824,-9326,7797,8022,7504,2017,-195,130,89,-3,-71
1619049617.3151288,-9326,7785,8033,7503,2021,-186,146,67,-13,-61
1619049617.3436918,-9323,7780,8041,7505,2016,-186,152,22,-23,-50
1619049617.3597548,-9317,7782,8043,7508,2007,-197,144,-26,-27,-34
1619049617.3846226,-9310,7789,8041,7511,2001,-202,149,-56,-31,-11
1619049617.397789,-9305,7799,8037,7511,2006,-209,140,-55,-30,10
1619049617.4161465,-9304,7805,8034,7509,2002,-200,147,-26,-27,15
1619049617.4430444,-9302,7810,8035,7506,2016,-183,128,-11,-25,16
1619049617.468487,-9297,7816,8036,7505,2048,-179,111,-25,-26,12
1619049617.4786313,-9289,7825,8036,7506,2022,-180,100,-52,-30,6
1619049617.501949,-9280,7835,8034,7508,2000,-180,124,-67,-38,8
1619049617.52567,-9275,7841,8034,7508,2000,-185,127,-33,-34,-1
1619049617.5503323,-9271,7841,8041,7506,1994,-184,113,12,-33,-19
1619049617.5678794,-9269,7839,8048,7503,2000,-190,98,28,-17,-24
1619049617.5854259,-9270,7831,8055,7503,2007,-174,113,44,1,-36
1619049617.6092134,-9267,7825,8060,7506,1991,-165,114,16,4,-40
1619049617.6436803,-9262,7824,8060,7514,2000,-161,122,-35,7,-29
1619049617.6538286,-9258,7828,8052,7523,2000,-192,146,-66,14,-17
1619049617.666505,-9259,7827,8049,7527,2009,-203,149,-18,11,-22
1619049617.6894858,-9261,7820,8051,7529,2015,-168,124,28,20,-18
1619049617.6991963,-9259,7814,8053,7535,2012,-161,113,1,25,-36
1619049617.7221627,-9251,7816,8052,7545,2016,-142,136,-62,-4,-27
1619049617.7508547,-9242,7826,8048,7549,2043,-154,83,-76,-1,14
1619049617.762815,-9238,7824,8050,7554,2007,-191,47,-8,43,-49
1619049617.7796683,-9232,7783,8085,7566,1990,-88,117,171,11,-220
1619049617.80305,-9217,7728,8139,7583,2017,5,87,223,-3,-312
1619049617.8367121,-9179,7687,8188,7618,1974,60,45,51,-23,-351
1619049617.846557,-9114,7677,8213,7679,2007,-11,88,-248,-56,-403
1619049617.859794,-9050,7682,8213,7749,1997,-202,86,-375,7,-437
1619049617.8801167,-9001,7677,8212,7812,1996,-174,200,-291,-1,-392
1619049617.916511,-8976,7670,8220,7839,1985,-187,171,-96,-39,-253
1619049617.926185,-8943,7708,8203,7858,1922,-207,202,-300,-144,-80
1619049617.9504502,-8897,7793,8146,7886,2057,-282,195,-605,-162,68
1619049617.9747255,-8880,7886,8051,7910,2117,-372,285,-650,-39,248
1619049617.9937437,-8896,7970,7954,7906,2122,-412,250,-459,29,385
1619049618.0035608,-8938,8012,7906,7863,2035,-287,214,-25,-28,412
1619049618.0357175,-9004,8015,7903,7788,1982,-173,50,372,7,414
1619049618.0452666,-9076,8006,7909,7707,1982,-111,37,458,19,439
1619049618.0571773,-9147,8005,7897,7636,2014,-78,94,356,51,497
1619049618.0886965,-9191,8017,7879,7588,2020,-82,78,159,31,415
1619049618.0980558,-9209,8047,7864,7551,1971,-148,52,16,-49,326
1619049618.1264462,-9231,8062,7873,7499,1987,-152,-77,183,-49,274
1619049618.1396046,-9256,8071,7877,7454,2010,-170,56,176,-69,255
1619049618.1630774,-9277,8081,7878,7416,2003,-153,61,129,-53,252
1619049618.192362,-9268,8105,7875,7403,1965,-113,44,-74,-81,168
1619049618.208324,-9240,8147,7858,7410,1992,-227,63,-269,-97,83
1619049618.2192473,-9235,8184,7839,7396,2027,-354,114,-140,-102,135
1619049618.2468572,-9248,8199,7835,7368,2048,-298,128,50,-91,161
1619049618.2595718,-9244,8219,7833,7353,1994,-224,100,-42,-109,121
1619049618.277689,-9222,8259,7816,7353,2023,-248,76,-231,-107,122
1619049618.3099499,-9208,8306,7782,7354,2048,-321,143,-286,-84,168
1619049618.3217075,-9200,8346,7752,7350,2008,-337,114,-215,-66,164
1619049618.35022,-9191,8381,7728,7347,2029,-294,106,-189,-65,155
1619049618.362118,-9194,8400,7713,7337,2004,-344,78,-65,-31,114
1619049618.3874505,-9209,8405,7707,7320,2015,-337,98,53,-20,113
1619049618.3978853,-9225,8404,7706,7301,2001,-281,63,94,-10,118
1619049618.421967,-9226,8404,7706,7301,1999,-229,46,7,13,56
1619049618.4393075,-9221,8414,7696,7305,2014,-288,55,-84,5,50
1619049618.4703746,-9215,8425,7693,7303,1992,-294,24,-53,-16,43
1619049618.479648,-9204,8438,7685,7312,1994,-322,23,-113,5,0
1619049618.5055752,-9200,8441,7677,7320,1994,-365,81,-64,19,-27
1619049618.5167518,-9207,8431,7684,7316,1994,-347,82,75,-2,-31
1619049618.5380273,-9209,8422,7700,7306,1980,-301,11,107,-23,-25
1619049618.5601082,-9203,8420,7708,7309,2000,-283,23,3,-8,-35
1619049618.576931,-9196,8428,7700,7317,2033,-396,66,-86,3,-36
1619049618.5978017,-9193,8429,7700,7319,2005,-364,69,-18,-9,-30
1619049618.6208866,-9195,8425,7704,7316,1994,-341,77,33,-17,-25
1619049618.638256,-9198,8420,7708,7315,1998,-287,63,40,3,3
1619049618.6655676,-9196,8424,7706,7316,1991,-327,33,-29,6,2
1619049618.6899178,-9196,8425,7701,7319,2020,-376,60,-23,20,-24
1619049618.70441,-9209,8415,7702,7314,2009,-366,96,84,22,-5
1619049618.7245169,-9225,8395,7715,7303,1979,-299,58,167,24,-10
1619049618.7474258,-9226,8386,7727,7299,1958,-258,36,74,-13,-10
1619049618.7650418,-9226,8387,7727,7298,2028,-360,44,-9,-9,-5
1619049618.7830431,-9227,8392,7722,7296,2033,-352,80,-19,-9,18
1619049618.7999444,-9227,8392,7722,7296,2028,-329,64,12,-6,0
1619049618.8302152,-9222,8401,7721,7293,1982,-347,58,-40,-43,5
1619049618.8396835,-9228,8400,7728,7278,1996,-368,30,83,-33,17
1619049618.8688176,-9240,8396,7736,7259,2005,-372,41,116,-25,28
1619049618.8740785,-9250,8391,7743,7245,1996,-313,75,96,-39,39
1619049618.897953,-9251,8391,7752,7235,1975,-287,35,52,-41,25
1619049618.9101615,-9247,8401,7749,7231,1995,-318,56,-39,-43,43
1619049618.928875,-9247,8411,7744,7224,2005,-359,61,-25,-30,50
1619049618.9664667,-9250,8415,7748,7213,2004,-346,52,34,-47,29
1619049618.9761147,-9256,8412,7753,7203,2012,-318,67,61,-31,33
1619049618.9930897,-9262,8406,7760,7194,1985,-300,47,76,-17,22
1619049619.0311012,-9266,8403,7763,7189,2005,-305,79,41,-20,26
1619049619.040791,-9264,8406,7762,7190,1991,-312,62,-21,-13,14
1619049619.0599496,-9261,8409,7761,7191,2008,-335,39,-25,-6,0
1619049619.0862162,-9264,8411,7756,7191,2013,-344,90,-14,-2,21
1619049619.095692,-9267,8409,7756,7187,1992,-329,55,25,-3,17
1619049619.1185963,-9262,8413,7753,7193,2014,-329,44,-50,7,-8
1619049619.1428823,-9263,8414,7747,7197,2022,-373,77,-29,17,-7
1619049619.1633039,-9270,8406,7750,7195,2002,-324,67,56,14,-4
1619049619.1727135,-9270,8403,7751,7197,1991,-296,25,9,22,3
1619049619.194572,-9261,8414,7743,7205,1998,-335,38,-102,6,0
1619049619.2158473,-9254,8420,7737,7213,2023,-368,44,-72,13,-26
1619049619.2457492,-9254,8420,7737,7213,2024,-367,72,-4,-5,-5
1619049619.2591398,-9261,8413,7741,7207,2006,-336,67,63,-3,4
1619049619.2686954,-9262,8407,7746,7209,1988,-274,39,32,11,-5
1619049619.3066099,-9252,8416,7738,7220,1985,-326,42,-108,15,-9
1619049619.3164172,-9250,8419,7731,7226,2009,-386,60,-47,22,-27
1619049619.3310714,-9261,8410,7735,7217,2005,-368,65,90,8,4
1619049619.3664873,-9273,8398,7744,7208,1997,-314,65,118,2,11
1619049619.3883007,-9269,8402,7740,7212,1994,-315,41,-41,9,8
1619049619.4037175,-9260,8412,7730,7222,1996,-339,47,-108,17,-1
1619049619.4135263,-9259,8421,7719,7225,2004,-387,69,-69,12,15
1619049619.4344962,-9263,8424,7714,7221,1994,-371,52,3,7,23
1619049619.4462824,-9270,8421,7716,7214,2003,-364,42,49,9,11
1619049619.4637327,-9276,8416,7720,7208,1994,-325,40,61,3,16
1619049619.497513,-9276,8416,7726,7202,1987,-306,25,32,-16,18
1619049619.51219,-9269,8426,7722,7203,1993,-336,26,-64,-17,17
1619049619.5319226,-9265,8435,7715,7205,2002,-376,67,-62,-12,12
1619049619.557271,-9269,8435,7715,7199,2003,-366,62,27,-8,13
1619049619.575204,-9275,8427,7721,7194,2016,-329,48,70,2,1
1619049619.5848017,-9281,8419,7726,7192,1999,-348,62,56,10,-20
1619049619.611792,-9294,8404,7732,7186,2013,-371,93,116,13,-20
1619049619.6358092,-9310,8387,7743,7174,1989,-316,74,155,8,14
1619049619.6486053,-9308,8387,7740,7178,1996,-278,56,-25,14,22
1619049619.665887,-9297,8407,7718,7193,1993,-349,74,-192,26,36
1619049619.7040343,-9288,8426,7696,7206,1987,-390,86,-171,24,24
1619049619.7136486,-9294,8425,7690,7206,2005,-403,84,-1,29,-2
1619049619.7263288,-9313,8408,7697,7195,1994,-329,76,153,25,26
1619049619.7496297,-9323,8393,7705,7190,1991,-275,47,109,34,16
1619049619.7744303,-9315,8397,7699,7202,1991,-293,36,-81,43,-7
1619049619.794956,-9303,8407,7686,7219,2000,-348,50,-141,41,-24
1619049619.8092616,-9298,8405,7684,7230,1979,-354,46,-41,41,-55
1619049619.831887,-9299,8397,7689,7233,1988,-368,41,37,31,-62
1619049619.861398,-9311,8379,7699,7228,1986,-398,64,130,31,-60
1619049619.896282,-9325,8361,7715,7214,1992,-385,74,174,-10,-42
1619049619.9139214,-9350,8329,7740,7191,2001,-341,45,302,15,-26
1619049619.9270055,-9369,8278,7787,7176,1952,-200,-5,372,27,-111
1619049620.13934,-9364,8249,7814,7185,2030,-241,46,125,12,-147
1619049620.1608593,-9362,8242,7809,7202,2042,-380,156,-49,36,-101
1619049620.1909442,-9359,8238,7806,7214,1972,-409,135,-36,15,-100
1619049620.1917317,-9599,7936,7916,7117,1999,-193,113,345,93,100
1619049620.2324839,-9658,7882,7915,7096,1985,-270,136,160,118,48
1619049620.2603467,-9692,7844,7935,7071,1978,-242,51,194,34,11
1619049620.2829154,-9695,7816,7974,7054,2006,-193,20,246,-31,-62
1619049620.3083193,-9684,7786,8021,7050,2004,-162,-3,202,-46,-157
1619049620.3249636,-9654,7762,8066,7066,1981,-141,20,70,-72,-241
1619049620.3611274,-9549,7768,8119,7139,2012,-245,80,-266,-114,-284
1619049620.3706038,-9497,7787,8122,7186,2019,-298,155,-324,-100,-271
1619049620.3844202,-9455,7804,8118,7226,2021,-340,201,-292,-89,-236
1619049620.4281747,-9426,7815,8113,7258,2014,-320,229,-216,-70,-182
1619049620.4485247,-9410,7815,8112,7280,2041,-295,201,-108,-35,-149
1619049620.473437,-9395,7796,8115,7316,2033,-225,162,-33,22,-102
1619049620.490826,-9392,7790,8111,7330,2014,-214,159,-41,32,-62
1619049620.5003924,-9391,7788,8104,7341,2008,-211,151,-49,37,-30
1619049620.5097024,-9392,7787,8096,7350,2013,-214,129,-34,49,-12
1619049620.5402193,-9394,7782,8091,7360,2000,-185,120,-23,63,-20
1619049620.5594223,-9394,7776,8087,7369,1995,-177,113,-17,59,-22
1619049620.5689218,-9394,7772,8082,7379,2009,-177,123,-28,52,-19
1619049620.5898333,-9392,7768,8080,7389,2013,-182,116,-26,46,-30
1619049620.620571,-9386,7764,8079,7401,2006,-185,103,-39,42,-58
1619049620.6559198,-9380,7759,8079,7413,2010,-183,108,-32,39,-64
1619049620.6655056,-9376,7751,8082,7424,2004,-179,125,-9,32,-71
1619049620.6860037,-9371,7741,8089,7434,2002,-184,118,8,22,-84
1619049620.6955009,-9364,7735,8095,7442,1993,-176,117,-5,10,-78
1619049620.7247632,-9355,7733,8098,7451,2002,-183,106,-35,7,-64
1619049620.7459211,-9347,7733,8099,7461,2012,-193,121,-42,3,-68
1619049620.7556055,-9337,7734,8101,7470,2010,-191,108,-49,2,-65
1619049620.7771573,-9329,7735,8101,7480,2011,-188,127,-51,4,-55
1619049620.7919874,-9324,7733,8101,7487,2007,-182,141,-29,2,-51
1619049620.8059506,-9320,7732,8104,7491,2002,-188,132,-11,-5,-43
1619049620.8287141,-9319,7731,8105,7491,2008,-198,131,4,-6,-22
1619049620.854586,-9320,7727,8109,7490,2029,-176,139,27,-4,-17
1619049620.865912,-9319,7724,8112,7490,2014,-173,124,15,-2,-22
1619049620.889739,-9319,7725,8112,7490,2008,-173,126,-14,1,-10
1619049620.9189262,-9319,7725,8112,7490,2001,-181,122,-11,-3,-8
1619049620.9276922,-9319,7725,8112,7490,1995,-187,136,-6,-16,-5
1619049620.973109,-9318,7725,8116,7486,2009,-168,115,17,-22,-2
1619049620.9820516,-9321,7720,8122,7480,2007,-176,128,55,-11,-9
1619049621.00126,-9322,7714,8132,7476,2000,-155,119,54,-20,-21
1619049621.0282369,-9321,7710,8138,7475,2007,-148,123,32,-15,-19
1619049621.0370522,-9321,7710,8138,7475,2002,-151,135,-2,-6,-5
1619049621.0612068,-9320,7713,8134,7476,2009,-174,155,-30,-5,13
1619049621.0739894,-9323,7715,8131,7474,2022,-180,147,-1,-5,18
1619049621.091845,-9325,7713,8135,7469,2017,-170,131,35,-14,7
1619049621.108879,-9327,7713,8139,7464,2022,-159,112,30,-13,13
1619049621.1329203,-9326,7715,8140,7461,2013,-156,118,1,-14,16
1619049621.1471202,-9323,7722,8139,7460,2006,-158,118,-28,-23,23
1619049621.1725647,-9321,7729,8135,7458,2009,-170,130,-34,-24,32
1619049621.1933572,-9320,7734,8133,7455,2016,-170,141,-17,-23,26
1619049621.2104356,-9320,7739,8133,7453,1999,-168,131,-10,-23,22
1619049621.241656,-9319,7744,8132,7449,2006,-169,123,-11,-23,29
1619049621.2512314,-9319,7749,8131,7445,2005,-172,126,-6,-22,32
1619049621.2799144,-9320,7755,8129,7440,2012,-172,128,-13,-24,40
1619049621.292199,-9321,7761,8124,7437,2022,-180,142,-20,-15,44
1619049621.3049355,-9324,7765,8119,7435,2019,-183,131,-15,-4,38
1619049621.3279269,-9326,7771,8113,7432,2011,-191,128,-20,0,45
1619049621.357075,-9328,7777,8107,7430,2010,-183,116,-23,4,44
1619049621.365948,-9331,7783,8102,7426,2009,-186,110,-16,6,46
1619049621.3879783,-9335,7788,8095,7422,2007,-199,119,-10,9,54
1619049621.4100397,-9338,7799,8088,7416,2003,-214,141,-30,-23,61
1619049621.4348884,-9329,7813,8088,7411,2009,-185,125,-54,-83,42
1619049621.4521093,-9307,7831,8094,7414,2014,-117,80,-112,-100,11
1619049621.4652429,-9278,7838,8107,7429,2006,2,34,-112,-57,-37
1619049621.491751,-9223,7861,8118,7461,1962,-10,-36,-275,-91,-117
1619049621.5231664,-9152,7891,8137,7496,1961,-10,-66,-333,-160,-175
1619049621.53308,-9073,7926,8151,7539,1986,-78,-70,-403,-156,-233
1619049621.5598748,-8993,7989,8122,7600,1986,-171,127,-656,-166,-156
1619049621.5694253,-8924,8081,8047,7663,2047,-312,153,-846,-79,3
1619049621.6014676,-8859,8212,7917,7734,2065,-522,251,-1116,-36,146
1619049621.6318126,-8811,8349,7790,7772,2080,-547,172,-988,-63,293
1619049621.6416368,-8803,8465,7675,7770,2087,-568,192,-679,-66,442
1619049621.6614282,-8835,8544,7579,7741,2083,-481,212,-323,-5,537
1619049621.6704776,-8904,8572,7526,7682,2049,-362,171,117,34,548
1619049621.6946068,-8994,8569,7503,7603,2040,-338,146,409,37,517
1619049621.7355745,-9081,8547,7504,7523,2009,-211,20,534,66,470
1619049621.7484581,-9150,8517,7518,7458,2004,-144,-23,502,77,365
1619049621.757684,-9211,8490,7526,7407,1970,-197,3,415,95,293
1619049621.7697737,-9256,8467,7541,7361,1938,-207,-47,369,62,224
1619049621.7946436,-9279,8447,7563,7333,1980,-166,-69,265,41,132
1619049621.8077846,-9282,8436,7582,7322,1974,-171,-39,126,12,48
1619049621.8347046,-9267,8446,7589,7322,1975,-285,-15,-47,-36,-1
1619049621.846806,-9251,8452,7600,7325,1984,-307,18,-41,-53,-50
1619049621.8680036,-9227,8454,7614,7338,1991,-267,34,-71,-56,-102
1619049621.890322,-9205,8461,7623,7348,1995,-385,76,-91,-80,-128
1619049621.9123561,-9193,8458,7640,7348,1999,-374,63,16,-75,-112
1619049621.9271545,-9189,8449,7657,7347,2014,-364,93,63,-63,-102
1619049621.9524574,-9189,8442,7669,7342,2000,-355,89,61,-48,-57
1619049621.963602,-9186,8445,7674,7337,2004,-358,88,5,-59,-14
1619049621.9879057,-9177,8461,7664,7341,2025,-379,118,-115,-52,7
1619049622.0104773,-9174,8473,7651,7344,2012,-351,126,-94,-26,38
1619049622.0234551,-9179,8482,7636,7343,1992,-381,107,-54,2,52
1619049622.0471554,-9190,8485,7625,7337,2001,-374,128,2,6,63
1619049622.0802522,-9214,8475,7624,7319,1998,-407,74,152,31,55
1619049622.0924969,-9241,8454,7638,7296,2010,-334,48,235,23,48
1619049622.1119618,-9264,8435,7650,7274,1988,-299,44,217,20,63
1619049622.129909,-9268,8435,7652,7269,1976,-242,40,29,2,69
1619049622.1547432,-9247,8456,7641,7281,1977,-284,9,-184,-7,26
1619049622.167251,-9230,8474,7626,7299,1991,-352,54,-187,14,-19
1619049622.1898804,-9237,8468,7627,7296,2013,-431,77,50,13,-36
1619049622.2145443,-9258,8440,7654,7274,1987,-344,54,273,-15,-36
1619049622.2274117,-9268,8416,7684,7256,1990,-268,27,226,-41,-30
1619049622.2500076,-9255,8417,7690,7266,2000,-238,33,-49,-9,-29
1619049622.2666802,-9226,8437,7678,7292,1996,-326,62,-243,-15,-65
1619049622.2956975,-9209,8453,7664,7309,2026,-417,97,-185,-14,-59
1619049622.3097243,-9216,8449,7665,7304,1992,-433,100,51,-13,-37
1619049622.33274,-9233,8429,7683,7287,2005,-342,83,198,-21,-13
1619049622.3553905,-9238,8420,7694,7279,2002,-313,37,92,-3,-11
1619049622.3803537,-9233,8425,7689,7285,2032,-320,59,-58,4,4
1619049622.3900735,-9227,8436,7678,7291,2011,-345,60,-95,11,17
1619049622.4156554,-9227,8443,7671,7291,2012,-371,82,-42,-9,14
1619049622.438092,-9234,8440,7673,7283,1996,-347,64,56,-1,23
1619049622.4624023,-9244,8431,7681,7273,1992,-322,39,101,6,15
1619049622.4769845,-9251,8426,7683,7267,1995,-312,71,54,0,31
1619049622.4901733,-9252,8427,7683,7264,1980,-316,53,12,-7,21
1619049622.5072155,-9244,8438,7679,7267,1993,-323,33,-73,-7,17
1619049622.5277584,-9241,8445,7673,7268,2004,-337,62,-47,-6,22
1619049622.5490532,-9241,8445,7674,7268,2002,-351,31,-11,-14,15
1619049622.572393,-9241,8445,7673,7267,2010,-348,61,3,-11,-2
1619049622.5896268,-9245,8441,7678,7263,2005,-346,60,50,-8,-5
1619049622.6104968,-9249,8435,7684,7259,1990,-325,57,52,-1,-9
1619049622.6331108,-9249,8431,7689,7258,1985,-304,53,27,-7,-7
1619049622.6572857,-9242,8433,7691,7261,1995,-303,41,-27,-11,-10
1619049622.669991,-9238,8439,7687,7265,2026,-355,81,-55,-10,-6
1619049622.692419,-9238,8438,7686,7266,2002,-342,88,-14,-8,9
1619049622.7156422,-9238,8440,7684,7267,1995,-356,78,-18,0,-8
1619049622.7395053,-9240,8437,7685,7267,1991,-357,48,19,7,-20
1619049622.7790887,-9248,8428,7693,7258,2006,-347,51,95,-2,-2
1619049622.78874,-9254,8423,7702,7247,1992,-317,36,84,-19,14
1619049622.7982326,-9247,8432,7705,7243,1986,-318,13,-27,-34,18
1619049622.8124113,-9226,8454,7692,7257,2005,-281,48,-197,-28,33
1619049622.826637,-9200,8481,7666,7285,2006,-335,94,-305,5,-10
1619049622.849768,-9194,8493,7650,7297,2001,-449,96,-129,15,-39
1619049622.8720517,-9214,8477,7660,7279,1997,-444,52,182,10,-17
1619049622.886563,-9242,8445,7686,7254,2006,-336,39,311,5,-13
1619049622.909705,-9254,8426,7705,7240,1997,-270,14,184,2,2
1619049622.9399393,-9243,8434,7702,7247,1987,-263,35,-82,-8,21
1619049622.9497027,-9222,8461,7681,7265,1988,-347,49,-249,0,13
1619049622.9702077,-9209,8483,7663,7275,2001,-413,44,-170,0,5
1619049622.992954,-9217,8481,7662,7268,2010,-412,78,43,-1,-1
1619049623.010054,-9238,8459,7680,7249,1996,-351,62,222,-11,-4
1619049623.0307539,-9249,8441,7701,7232,1984,-282,22,186,-21,2
1619049623.0601523,-9249,8441,7702,7233,1995,-278,35,-16,-15,-10
1619049623.0743477,-9233,8450,7699,7246,1998,-315,35,-117,-8,-31
1619049623.0994637,-9220,8463,7692,7254,2004,-358,61,-115,-24,-17
1619049623.128618,-9218,8470,7686,7255,2002,-394,98,-50,-25,-5
1619049623.1410058,-9221,8467,7687,7254,2001,-355,81,22,-10,-10
1619049623.1522179,-9226,8464,7688,7250,1997,-372,71,31,-3,-4
1619049623.1829464,-9234,8459,7690,7244,2006,-352,58,61,3,12
1619049623.1935923,-9239,8458,7690,7238,2000,-335,45,34,5,32
1619049623.220112,-9241,8463,7683,7238,2020,-344,71,-29,5,37
1619049623.2427406,-9242,8468,7675,7239,2003,-335,59,-37,13,39
1619049623.2530417,-9240,8475,7666,7241,1995,-333,53,-55,11,41
1619049623.2756765,-9243,8481,7661,7237,1998,-367,40,-11,4,39
1619049623.3029706,-9251,8481,7660,7228,2006,-377,43,47,4,34
1619049623.3141282,-9260,8473,7665,7220,1989,-336,51,82,8,14
1619049623.329448,-9263,8466,7673,7217,1991,-284,28,60,5,13
1619049623.3604531,-9262,8465,7674,7217,1992,-304,23,-1,2,3
1619049623.3826888,-9253,8475,7668,7223,2002,-351,42,-82,-8,-1
1619049623.4089708,-9249,8478,7666,7227,1999,-354,70,-44,-9,-14
1619049623.4189548,-9245,8475,7672,7230,1991,-322,43,8,-7,-32
1619049623.4303277,-9244,8468,7677,7234,2002,-331,59,18,6,-39
1619049623.4601147,-9250,8458,7682,7232,1990,-362,54,65,22,-33
1619049623.5201783,-9266,8442,7687,7225,1988,-392,60,132,41,-23
1619049623.6042187,-9287,8421,7703,7206,1986,-374,57,215,4,-8
1619049623.614507,-9309,8391,7730,7182,1983,-273,29,290,-6,9
1619049623.6446502,-9310,8403,7700,7201,2022,-458,216,-90,2,88
1619049623.6615927,-9331,8401,7701,7174,1996,-369,118,134,-44,118
1619049623.709008,-9336,8308,7827,7139,2017,-116,-170,402,-25,-251
1619049623.7143552,-9326,8263,7873,7154,2051,-231,0,189,10,-275
1619049623.743436,-9328,8233,7873,7188,2003,-435,183,-22,33,-113
1619049623.74846,-9327,8226,7867,7202,2022,-387,176,-42,17,-96
1619049623.773116,-9328,8215,7869,7211,2037,-306,104,20,32,-62
1619049623.8055608,-9335,8184,7889,7216,2021,-256,64,146,49,-114
1619049623.8306108,-9337,8138,7927,7223,2001,-197,29,233,41,-200
1619049623.840034,-9328,8091,7974,7236,2011,-138,16,206,12,-251
1619049623.8513296,-9299,8060,8013,7264,1992,-108,-15,40,-1,-280
1619049623.860806,-9250,8049,8036,7315,2000,-131,11,-177,-2,-318
1619049623.8796592,-9190,8047,8046,7381,1999,-174,30,-313,7,-369
1619049623.8920152,-9129,8045,8052,7452,2014,-217,79,-345,8,-407
1619049623.9156992,-9079,8040,8054,7515,2019,-252,131,-292,12,-379
1619049623.9319057,-9043,8034,8052,7568,2023,-269,152,-235,22,-318
1619049623.9525206,-9018,8022,8052,7610,2038,-262,166,-149,30,-281
1619049623.9750218,-8998,8007,8052,7649,2053,-236,146,-115,52,-251
1619049623.9928048,-8983,7993,8050,7684,2046,-220,118,-106,82,-219
1619049624.0276432,-8974,7981,8047,7709,2008,-228,95,-63,76,-171
1619049624.051081,-8977,7969,8045,7720,1999,-230,103,13,68,-102
1619049624.0606992,-8990,7950,8049,7721,2026,-195,100,99,72,-63
1619049624.0719075,-8996,7933,8056,7724,2028,-134,63,82,72,-58
1619049624.1025543,-8994,7929,8051,7736,2033,-128,57,-37,70,-34
1619049624.112364,-8987,7938,8036,7751,2012,-146,59,-126,67,-4
1619049624.1335907,-8980,7952,8016,7764,2000,-158,79,-152,51,23
1619049624.1572733,-8979,7967,7998,7768,2007,-183,80,-107,34,49
1619049624.172293,-8985,7978,7987,7762,2011,-192,78,-29,19,70
1619049624.1924808,-8995,7982,7983,7749,2016,-185,77,43,7,67
1619049624.2149248,-9005,7982,7988,7735,2003,-159,59,81,-6,52
1619049624.2322547,-9009,7983,7994,7722,1998,-133,47,62,-16,48
1619049624.2532272,-9012,7990,7995,7711,1988,-136,60,14,-28,69
1619049624.2745953,-9011,8006,7989,7700,2018,-152,66,-36,-40,92
1619049624.297405,-9010,8023,7983,7690,2013,-179,69,-41,-43,82
1619049624.3147948,-9009,8034,7982,7681,2003,-168,74,-15,-48,57
1619049624.335573,-9009,8044,7983,7670,2018,-177,75,3,-53,52
1619049624.365006,-9013,8050,7986,7656,2007,-173,87,39,-53,60
1619049624.3809466,-9020,8052,7991,7641,2013,-174,99,65,-50,58
1619049624.4114134,-9030,8047,7998,7626,2026,-167,116,104,-41,44
1619049624.420752,-9038,8039,8011,7612,2026,-146,98,113,-43,26
1619049624.442685,-9040,8036,8018,7604,2028,-136,79,52,-34,21
1619049624.4570389,-9037,8036,8020,7606,2014,-129,106,-8,-23,6
1619049624.502047,-9031,8037,8021,7612,2010,-143,98,-37,-17,-19
1619049624.5211315,-9023,8035,8023,7621,2026,-136,105,-39,-8,-40
1619049624.5304844,-9016,8028,8027,7633,2032,-137,91,-21,9,-68
1619049624.5458724,-9012,8018,8032,7642,2007,-144,107,6,15,-70
1619049624.5554786,-9013,8009,8035,7647,2003,-161,123,20,3,-48
1619049624.5745785,-9016,8000,8039,7649,2016,-169,118,41,5,-36
1619049624.6055682,-9018,7990,8043,7652,2016,-173,110,36,17,-50
1619049624.6280663,-9016,7987,8043,7659,2020,-160,73,-13,26,-39
1619049624.6381223,-9012,7990,8035,7668,2002,-162,98,-68,28,-10
1619049624.6572819,-9007,7999,8021,7680,2013,-162,93,-110,33,7
1619049624.6714754,-9001,8008,8007,7692,2016,-173,81,-115,39,4
1619049624.6950917,-8998,8015,7994,7702,2019,-183,96,-90,42,3
1619049624.7177715,-8998,8018,7986,7707,2018,-173,70,-45,41,3
1619049624.7345135,-8998,8016,7983,7712,2022,-159,65,-14,38,-9
1619049624.755515,-8997,8012,7984,7716,2008,-149,70,3,34,-25
1619049624.7884533,-8996,8006,7987,7720,2006,-143,66,14,29,-33
1619049624.805615,-8995,8001,7993,7721,1998,-139,63,23,16,-29
1619049624.8147612,-8994,7997,7997,7722,2012,-143,83,17,-2,-23
1619049624.8545547,-8991,7996,8002,7721,2024,-162,74,11,-13,-27
1619049624.864201,-8986,7998,8006,7721,2008,-171,72,-6,-18,-29
1619049624.88269,-8981,8003,8007,7720,2007,-174,79,-24,-25,-14
1619049624.897981,-8978,8008,8007,7718,2022,-174,89,-16,-30,4
1619049624.931545,-8979,8012,8007,7714,2013,-179,106,0,-29,8
1619049624.9423227,-8981,8013,8009,7708,2013,-168,103,24,-28,15
1619049624.971905,-8985,8018,8008,7699,2009,-175,99,11,-30,41
1619049624.9813309,-8989,8023,8006,7691,2015,-173,99,15,-27,50
1619049625.0141282,-8993,8028,8004,7683,2019,-162,91,14,-20,50
1619049625.0244086,-8999,8032,8000,7677,2015,-163,100,6,-7,55
1619049625.0347407,-9004,8034,7997,7672,2018,-158,91,13,0,49
1619049625.0553539,-9012,8030,7996,7667,2025,-161,111,46,7,31
1619049625.0774353,-9019,8023,7999,7663,2015,-146,97,57,12,12
1619049625.0947208,-9022,8015,8005,7662,2012,-128,80,52,14,-7
1619049625.115447,-9020,8007,8011,7666,2013,-116,90,19,4,-29
1619049625.1388903,-9013,8003,8017,7672,2003,-104,76,-8,0,-35
1619049625.1551158,-9006,8002,8017,7681,2004,-124,110,-43,-6,-32
1619049625.1748025,-9000,7998,8018,7691,2028,-141,100,-31,14,-49
1619049625.1987612,-8992,7992,8020,7705,1999,-149,93,-33,20,-86
1619049625.2158391,-8979,7996,8019,7718,2018,-141,96,-89,-10,-61
1619049625.237257,-8967,8004,8012,7730,2029,-181,79,-111,7,-40
1619049625.2582564,-8957,8010,8005,7743,2013,-191,79,-96,19,-54
1619049625.289085,-8958,8003,8008,7746,2019,-198,113,22,6,-70
1619049625.2992501,-8964,7989,8021,7740,2031,-158,82,113,4,-43
1619049625.3342593,-8968,7973,8041,7731,2027,-94,36,135,-7,-36
1619049625.3438456,-8954,7962,8059,7741,1973,-63,4,17,9,-110
1619049625.355097,-8932,7966,8061,7760,1976,-119,50,-117,-5,-108
1619049625.379886,-8926,7985,8033,7775,2058,-289,125,-191,41,-18
1619049625.401741,-8942,8003,7994,7779,2071,-307,194,-124,68,96
1619049625.4152198,-8963,8006,7976,7770,2000,-219,124,29,65,100
1619049625.4375203,-8972,8011,7967,7765,2015,-136,80,-5,39,84
1619049625.4597428,-8987,8025,7941,7759,2037,-213,95,-49,71,140
1619049625.474521,-9018,8038,7915,7735,2026,-301,93,39,66,187
1619049625.497791,-9053,8043,7898,7707,2030,-226,133,115,45,213
1619049625.5207007,-9082,8046,7888,7680,2020,-133,129,114,15,226
1619049625.550292,-9091,8050,7896,7657,1958,-61,23,96,-30,154
1619049625.6142948,-9091,8060,7907,7635,1987,-123,-33,59,-46,102
1619049625.6240141,-9101,8081,7888,7620,2060,-231,145,-50,-35,170
1619049625.6364348,-9111,8100,7891,7585,1986,-109,50,28,-94,80
1619049625.641106,-9093,8117,7895,7585,1992,-91,54,-95,-85,53
1619049625.6620767,-9078,8140,7889,7584,1990,-205,105,-130,-94,44
1619049625.6864312,-9075,8147,7890,7580,2034,-202,138,-19,-68,26
1619049625.701132,-9067,8152,7891,7581,2018,-183,118,-40,-58,3
1619049625.7196033,-9063,8164,7890,7574,1981,-248,95,-33,-66,26
1619049625.7449014,-9060,8179,7884,7569,2029,-223,120,-56,-66,63
1619049625.7618718,-9053,8194,7871,7574,2042,-213,114,-120,-26,48
1619049625.7739506,-9047,8206,7855,7585,2018,-223,138,-127,2,26
1619049625.7982888,-9045,8207,7849,7593,1997,-191,82,-49,31,3
1619049625.8203642,-9046,8209,7839,7600,2027,-244,109,-46,34,5
1619049625.8346891,-9062,8201,7841,7588,1992,-247,82,104,21,40
1619049625.8438516,-9072,8193,7849,7576,2008,-208,17,108,25,23
1619049625.8611505,-9070,8190,7853,7578,2014,-196,40,13,18,-16
1619049625.9058313,-9071,8185,7858,7577,2025,-198,56,33,13,-8
1619049625.916326,-9070,8184,7859,7577,2000,-169,59,2,12,0
1619049625.9262636,-9057,8198,7851,7587,1993,-223,67,-122,-12,-8
1619049625.9441745,-9044,8212,7845,7593,1996,-255,73,-113,-37,-17
1619049625.9729228,-9043,8210,7854,7586,2028,-262,48,49,-25,-35
1619049625.9861767,-9047,8200,7868,7578,2034,-232,57,99,-17,-36
1619049626.0042303,-9054,8193,7877,7569,2008,-231,85,89,-24,-4
1619049626.0222661,-9049,8200,7878,7564,2001,-205,80,-20,-53,23
1619049626.0412564,-9037,8215,7875,7567,2016,-214,46,-96,-42,12
1619049626.0698974,-9027,8229,7866,7572,2029,-232,65,-108,-17,17
1619049626.0870857,-9028,8238,7856,7572,2030,-285,101,-56,-7,23
1619049626.1047387,-9041,8238,7856,7556,2011,-288,107,81,-31,50
1619049626.126243,-9050,8237,7862,7540,2012,-231,56,86,-34,51
1619049626.1532907,-9051,8235,7867,7536,2024,-191,42,36,-3,19
1619049626.1662107,-9055,8237,7862,7535,2042,-243,105,-9,-2,30
1619049626.1919959,-9065,8237,7858,7525,2016,-238,114,42,-13,64
1619049626.2128544,-9068,8241,7860,7517,1994,-207,55,18,-23,51
1619049626.2230637,-9060,8251,7855,7521,2003,-210,40,-71,-8,20
1619049626.2441163,-9062,8253,7848,7523,2028,-260,94,-29,13,12
1619049626.269664,-9074,8243,7851,7515,2005,-248,91,94,15,16
1619049626.2951655,-9083,8234,7860,7506,1965,-211,70,99,-11,13
1619049626.3052464,-9083,8231,7864,7505,1984,-207,44,23,6,-2
1619049626.3222291,-9079,8233,7863,7509,1999,-253,44,-30,12,-24
1619049626.356504,-9081,8230,7866,7507,2025,-261,66,30,0,-21
1619049626.3686864,-9083,8223,7875,7502,1994,-215,57,63,-11,-14
1619049626.3867526,-9078,8221,7883,7503,1996,-189,51,7,-22,-20
1619049626.4065695,-9068,8227,7880,7511,2004,-215,58,-74,-11,-15
1619049626.4345217,-9064,8234,7878,7510,1994,-260,66,-34,-24,0
1619049626.4576697,-9064,8239,7878,7505,2021,-268,74,1,-32,11
1619049626.4670062,-9066,8238,7883,7499,2025,-232,73,33,-31,11
1619049626.483147,-9061,8245,7884,7496,2025,-218,50,-26,-35,18
1619049626.5075734,-9054,8251,7882,7500,2017,-217,64,-54,-20,6
1619049626.5263793,-9047,8262,7875,7505,2020,-253,60,-86,-12,6
1619049626.5464509,-9046,8267,7873,7502,2027,-254,83,-17,-31,15
1619049626.580197,-9049,8268,7873,7496,2014,-246,67,21,-15,23
1619049626.5958595,-9049,8273,7870,7494,2013,-242,59,-18,-14,29
1619049626.6059458,-9046,8281,7863,7496,2018,-241,65,-60,-1,26
1619049626.6274116,-9042,8290,7856,7499,2014,-255,51,-63,-1,18
1619049626.6489537,-9040,8297,7848,7501,2048,-249,67,-55,0,32
1619049626.6633017,-9043,8300,7841,7501,2013,-268,67,-22,18,22
1619049626.6870406,-9046,8302,7835,7501,2004,-256,54,-13,20,20
1619049626.7005563,-9045,8307,7832,7500,1994,-257,30,-22,6,15
1619049626.7240858,-9045,8308,7832,7500,2011,-285,35,10,11,15
1619049626.7476437,-9053,8306,7832,7492,2018,-263,48,52,12,30
1619049626.7607152,-9060,8302,7834,7485,2011,-225,45,54,8,38
1619049626.7989848,-9060,8305,7834,7483,1987,-227,28,0,1,23
1619049626.8093162,-9055,8310,7837,7479,2002,-239,14,-10,-24,12
1619049626.8211432,-9053,8311,7842,7476,2005,-261,41,13,-26,-13
1619049626.8487983,-9054,8308,7851,7469,2017,-240,51,55,-35,-4
1619049626.8705971,-9051,8305,7858,7468,2005,-214,56,14,-28,-15
1619049626.884706,-9041,8312,7857,7474,2007,-247,58,-69,-30,-24
1619049626.9077237,-9035,8316,7855,7479,1997,-269,74,-47,-20,-25
1619049626.9282784,-9036,8317,7853,7478,2009,-301,73,-4,-7,-19
1619049626.9462411,-9046,8309,7859,7470,2037,-289,73,87,-6,-11
1619049626.961401,-9054,8302,7864,7462,2043,-242,73,80,-13,19
1619049626.9896188,-9054,8303,7864,7462,2015,-203,78,-7,-14,29
1619049627.0100365,-9048,8313,7854,7466,1989,-235,63,-86,-8,34
1619049627.0292041,-9044,8328,7840,7470,1992,-290,62,-104,0,35
1619049627.048273,-9050,8330,7835,7466,1990,-284,66,10,6,29
1619049627.074943,-9062,8324,7836,7458,2001,-271,62,72,16,27
1619049627.0871294,-9068,8316,7841,7454,1997,-207,53,59,8,18
1619049627.1186988,-9061,8319,7841,7458,1989,-193,25,-33,2,8
1619049627.1351626,-9049,8331,7833,7469,2007,-245,22,-121,6,-4
1619049627.1462493,-9045,8338,7826,7473,2035,-300,51,-65,6,-8
1619049627.168841,-9048,8331,7831,7472,2029,-266,38,51,14,-26
1619049627.1921885,-9050,8322,7838,7472,2014,-229,33,51,18,-29
1619049627.2087705,-9044,8318,7843,7478,1991,-234,30,-3,5,-49
1619049627.228653,-9036,8319,7847,7483,2004,-256,13,-32,-1,-47
1619049627.2440877,-9031,8326,7838,7490,2031,-288,81,-76,2,-15
1619049627.2677693,-9029,8326,7835,7495,2010,-281,60,-27,9,-27
1619049627.2885737,-9029,8326,7835,7496,2031,-290,38,-4,13,-30
1619049627.3054607,-9035,8320,7839,7492,2014,-284,54,56,6,-14
1619049627.3232534,-9045,8310,7849,7479,2008,-260,41,120,-9,-1
1619049627.3488088,-9049,8306,7854,7473,2009,-226,44,53,-7,16
1619049627.3722765,-9048,8310,7849,7475,2022,-236,58,-34,5,24
1619049627.3848271,-9048,8315,7842,7478,2023,-257,62,-42,10,19
1619049627.4082723,-9055,8310,7841,7476,2010,-259,81,34,15,11
1619049627.4495358,-9065,8297,7851,7468,1988,-228,35,121,18,-3
1619049627.4737363,-9077,8284,7860,7459,1999,-232,49,119,18,7
1619049627.509557,-9089,8279,7859,7450,2006,-270,60,74,20,38
1619049627.5715818,-9101,8284,7848,7441,1996,-350,106,8,0,50
1619049627.5929425,-9123,8285,7839,7423,2022,-341,166,80,-20,102
1619049627.6177163,-9154,8225,7930,7356,2023,-191,13,-30,2,-111
1619049627.6352258,-9158,8229,7908,7368,2043,-442,178,-96,39,-56
1619049627.6533036,-9195,8218,7895,7350,2015,-501,222,144,35,27
1619049627.6634343,-9238,8197,7902,7312,2041,-355,146,304,-2,107
1619049627.688443,-9276,8169,7915,7280,1998,-243,61,312,49,101
1619049627.7057707,-9307,8133,7936,7258,2008,-170,69,311,49,47
1619049627.7157102,-9330,8094,7970,7234,2012,-138,-4,343,28,3
1619049627.7456372,-9337,8056,8016,7217,1994,-109,-60,305,-11,-77
1619049627.754929,-9322,8023,8065,7219,1993,-79,-64,186,-35,-172
1619049627.765696,-9291,7998,8107,7240,1992,-85,-17,40,-55,-252
1619049627.7965732,-9242,7988,8138,7278,1997,-110,23,-132,-85,-295
1619049627.8235683,-9182,7998,8151,7329,2007,-176,80,-306,-109,-299
1619049627.8331227,-9123,8018,8148,7384,2022,-228,129,-388,-93,-274
1619049627.8515935,-9072,8040,8133,7439,2046,-274,150,-405,-52,-246
1619049627.8689737,-9033,8055,8114,7490,2034,-304,175,-346,-18,-226
1619049627.886006,-9012,8060,8100,7525,2039,-315,164,-213,11,-186
1619049627.9095232,-9009,8053,8091,7546,2039,-293,150,-69,39,-131
1619049627.9413106,-9016,8041,8089,7553,2041,-248,109,32,53,-75
1619049627.9506161,-9027,8027,8086,7558,2020,-189,103,47,69,-29
1619049627.9703436,-9036,8021,8076,7564,2019,-171,79,5,82,18
1619049627.9924848,-9043,8018,8062,7574,2025,-150,73,-38,99,32
1619049628.0161517,-9048,8017,8045,7587,2009,-150,60,-65,112,27
1619049628.0292275,-9048,8025,8024,7600,2001,-167,42,-113,103,39
1619049628.046193,-9046,8040,8000,7612,2006,-190,49,-147,78,59
1619049628.081724,-9047,8058,7977,7617,2019,-236,45,-122,64,71
1619049628.0948548,-9059,8059,7965,7613,2017,-232,54,13,73,55
1619049628.1073503,-9079,8045,7971,7599,2007,-208,43,151,62,27
1619049628.1229901,-9099,8023,7986,7581,2006,-178,44,217,38,13
1619049628.1606421,-9112,8005,8003,7568,1987,-118,45,169,22,12
1619049628.169424,-9109,8003,8008,7567,1987,-129,48,16,-2,8
1619049628.181936,-9094,8019,8002,7575,2008,-162,46,-128,-13,6
1619049628.2120297,-9078,8039,7992,7584,2023,-197,37,-156,-16,7
1619049628.2389767,-9068,8052,7988,7587,2028,-215,66,-83,-31,-2
1619049628.248,-9064,8057,7992,7582,2016,-213,64,-3,-44,-6
1619049628.2776167,-9067,8056,7999,7572,2007,-206,92,55,-43,4
1619049628.2946599,-9072,8050,8009,7560,2021,-207,82,93,-38,-4
1619049628.3035166,-9076,8043,8021,7551,2009,-191,78,90,-36,-14
1619049628.3243625,-9078,8040,8029,7543,2008,-176,80,55,-35,2
1619049628.3467264,-9078,8045,8030,7538,2007,-183,91,0,-38,31
1619049628.3719854,-9076,8058,8023,7533,2006,-206,91,-50,-42,53
1619049628.384985,-9076,8069,8015,7529,2019,-219,100,-44,-30,54
1619049628.409665,-9082,8074,8012,7521,2018,-228,87,14,-15,47
1619049628.430883,-9091,8075,8011,7510,2011,-218,84,48,-12,48
1619049628.4446635,-9100,8074,8013,7498,2013,-195,70,63,-9,57
1619049628.4679177,-9107,8074,8013,7490,2020,-173,78,41,-7,60
1619049628.4844759,-9111,8077,8008,7486,2021,-183,89,-3,-5,56
1619049628.5145197,-9111,8084,8003,7484,2018,-191,65,-25,-1,48
1619049628.543933,-9113,8086,8001,7482,2012,-199,76,-7,-1,27
1619049628.5538723,-9117,8085,8001,7478,2011,-205,83,26,-8,21
1619049628.5654914,-9122,8083,8003,7472,2004,-198,82,38,-6,26
1619049628.59906,-9125,8079,8008,7468,2013,-192,71,48,-8,5
1619049628.6085799,-9123,8075,8013,7469,2012,-184,68,13,-5,-17
1619049628.624745,-9118,8076,8012,7474,2014,-174,72,-30,-1,-6
1619049628.6548798,-9114,8078,8010,7480,2003,-190,88,-41,-1,-11
1619049628.6642478,-9109,8080,8007,7487,2010,-195,80,-50,4,-15
1619049628.6850212,-9106,8081,8004,7492,2022,-214,78,-33,9,-21
1619049628.7342262,-9103,8081,8003,7497,2021,-228,73,-23,10,-29
1619049628.7445595,-9103,8079,8003,7499,2016,-214,80,-3,9,-18
1619049628.7539327,-9103,8079,8003,7499,2012,-202,74,12,6,-10
1619049628.772905,-9105,8074,8005,7500,2011,-203,83,24,7,-19
1619049628.8165298,-9104,8071,8007,7502,2020,-197,68,3,8,-19
1619049628.8272696,-9102,8071,8006,7506,2011,-205,57,-15,13,-19
1619049628.8371556,-9102,8071,8006,7505,2002,-207,65,-13,2,-9
1619049628.8492086,-9102,8071,8006,7506,2014,-196,76,-15,-5,-10
1619049628.8747287,-9099,8073,8006,7508,2018,-210,67,-19,0,-12
1619049628.8872225,-9099,8073,8006,7507,2021,-219,80,-5,4,-11
1619049628.9094644,-9101,8070,8010,7504,2018,-209,68,35,-8,-10
1619049628.9330053,-9103,8068,8014,7500,2012,-201,68,34,-12,0
1619049628.9472446,-9103,8068,8014,7500,2004,-187,78,10,-6,-1
1619049628.964733,-9103,8068,8014,7500,2015,-206,72,0,-5,-3
1619049628.9933348,-9105,8065,8015,7499,2016,-205,81,17,2,-2
1619049629.0202026,-9107,8062,8018,7497,2012,-189,72,26,0,0
1619049629.029513,-9107,8062,8018,7497,2007,-194,71,10,1,0
1619049629.045175,-9106,8062,8018,7497,2017,-197,66,-10,0,8
1619049629.0675545,-9107,8062,8018,7497,2028,-208,75,-5,5,8
1619049629.09244,-9109,8060,8019,7495,2016,-210,74,23,6,-4
1619049629.1106155,-9113,8055,8022,7492,2010,-205,81,37,2,-2
1619049629.127337,-9117,8049,8025,7492,2010,-188,79,39,10,-10
1619049629.1447065,-9120,8042,8029,7491,2005,-183,81,42,8,-12
1619049629.1646037,-9120,8042,8029,7491,2022,-190,81,12,1,13
1619049629.1872919,-9120,8041,8029,7491,2021,-194,108,0,-4,14
1619049629.2098584,-9120,8041,8029,7491,2014,-200,71,0,-16,-7
1619049629.2254758,-9112,8046,8031,7494,2002,-189,74,-37,-31,-16
1619049629.2630684,-9100,8050,8035,7500,2013,-147,35,-53,-22,-29
1619049629.2727299,-9079,8060,8036,7514,2013,-117,26,-124,-27,-29
1619049629.299628,-9051,8075,8035,7533,2010,-112,38,-180,-42,-44
1619049629.30896,-9030,8081,8034,7552,1991,-153,68,-129,-18,-81
1619049629.329599,-9008,8078,8047,7567,2001,-151,11,-59,-24,-134
1619049629.3469126,-8975,8079,8067,7585,1972,-90,17,-95,-83,-148
1619049629.3672826,-8927,8097,8075,7613,1990,-144,-32,-238,-80,-172
1619049629.400664,-8869,8155,8037,7660,2041,-277,4,-561,-42,-94
1619049629.4131835,-8817,8248,7940,7720,2080,-404,173,-851,5,81
1619049629.4272294,-8788,8337,7831,7769,2075,-436,209,-774,64,194
1619049629.4584346,-8771,8415,7744,7790,2038,-478,195,-575,-11,198
1619049629.4833195,-8793,8469,7684,7767,2088,-445,149,-197,-25,327
1619049629.5265474,-8863,8476,7658,7706,2045,-405,121,267,31,374
1619049629.5367677,-8937,8448,7675,7634,2022,-193,40,533,19,321
1619049629.5637674,-8993,8418,7688,7589,2017,-137,49,402,60,240
1619049629.5733726,-9041,8395,7687,7557,1979,-136,90,283,86,234
1619049629.5824616,-9066,8382,7702,7527,1917,-134,-26,237,13,147
1619049629.5943813,-9076,8361,7724,7515,2007,-115,-66,184,54,28
1619049629.6068072,-9090,8343,7730,7513,1999,-185,45,123,74,22
1619049629.629635,-9099,8325,7750,7500,1933,-179,40,164,-12,-1
1619049629.6471543,-9085,8311,7781,7500,1986,-138,-47,89,-37,-96
1619049629.6770372,-9063,8313,7787,7520,2022,-239,54,-106,-15,-122
1619049629.6905236,-9047,8315,7787,7537,2003,-306,111,-101,-27,-117
1619049629.7071838,-9039,8307,7804,7537,1982,-262,56,47,-49,-99
1619049629.727319,-9025,8304,7818,7543,2005,-225,22,-6,-34,-100
1619049629.7500885,-9012,8313,7811,7556,2055,-325,79,-120,-9,-75
1619049629.7722363,-9008,8320,7803,7561,2023,-329,119,-69,-23,-28
1619049629.787179,-9008,8327,7801,7556,2014,-289,87,-15,-38,11
1619049629.8098195,-9010,8335,7794,7551,2019,-294,62,-24,-11,40
1619049629.8439949,-9019,8338,7788,7544,2021,-264,100,16,-4,58
1619049629.854297,-9029,8334,7786,7537,2021,-240,74,55,11,50
1619049629.8719795,-9042,8334,7782,7526,2025,-280,69,55,13,66
1619049629.8870916,-9059,8335,7783,7503,1991,-272,61,106,-23,102
1619049629.9073896,-9065,8338,7788,7489,1994,-224,29,60,-32,68
1619049629.9306264,-9067,8337,7793,7482,2006,-237,18,42,-6,26
1619049629.9523246,-9073,8338,7794,7472,2014,-271,53,40,-14,40
1619049629.9672635,-9085,8328,7806,7456,2005,-235,78,138,-38,30
1619049629.990558,-9082,8324,7819,7450,1987,-165,24,53,-35,18
1619049630.0070667,-9070,8329,7820,7459,2000,-207,40,-70,-15,-22
1619049630.027337,-9066,8329,7817,7467,2031,-300,82,-42,6,-46
1619049630.050965,-9076,8315,7827,7460,2017,-297,89,112,-4,-43
1619049630.0671058,-9092,8292,7849,7443,2000,-249,76,219,-28,-25
1619049630.087604,-9092,8285,7860,7439,2014,-186,57,58,-26,-3
1619049630.109886,-9077,8295,7852,7455,2018,-204,70,-137,-8,-11
1619049630.126862,-9063,8313,7832,7473,2027,-298,109,-201,4,-12
1619049630.1625357,-9064,8319,7820,7476,2016,-328,98,-54,8,9
1619049630.172238,-9076,8313,7824,7465,2031,-302,60,90,1,13
1619049630.1928554,-9085,8303,7831,7457,2029,-241,55,96,10,11
1619049630.2069778,-9088,8303,7830,7456,2014,-232,63,10,4,24
1619049630.229561,-9082,8308,7827,7461,2000,-216,42,-55,4,13
1619049630.2521276,-9066,8325,7815,7472,1993,-246,26,-157,1,13
1619049630.267524,-9062,8337,7805,7475,2015,-291,62,-83,-5,22
1619049630.2896109,-9062,8337,7804,7475,2021,-301,60,14,-14,3
1619049630.3197258,-9068,8331,7814,7465,1998,-270,28,88,-11,-5
1619049630.3298016,-9071,8328,7822,7457,1991,-247,15,64,-14,4
1619049630.3496864,-9070,8328,7823,7457,2018,-243,35,6,-9,-3
1619049630.3725114,-9065,8334,7817,7463,2002,-250,71,-68,-5,6
1619049630.3951578,-9059,8341,7814,7465,2000,-259,52,-53,-17,6
1619049630.4292953,-9051,8348,7813,7468,2005,-262,40,-55,-20,-12
1619049630.4392347,-9053,8350,7811,7465,2031,-317,76,3,-19,-3
1619049630.4791036,-9061,8342,7819,7456,1992,-284,56,94,-5,-11
1619049630.4887562,-9065,8336,7825,7452,2019,-270,44,52,0,-16
1619049630.4977875,-9065,8336,7824,7452,2015,-258,62,10,-4,6
1619049630.5115323,-9065,8336,7824,7453,1999,-254,70,0,-8,5
1619049630.5375843,-9063,8341,7820,7455,2009,-269,63,-39,-6,9
1619049630.5532498,-9063,8344,7817,7454,2013,-289,60,-17,-6,4
1619049630.5666113,-9068,8341,7819,7449,2014,-301,69,42,-5,-3
1619049630.5899904,-9077,8334,7825,7439,2015,-264,61,88,-7,15
1619049630.6123028,-9084,8327,7829,7434,1989,-218,65,61,-2,27
1619049630.6269548,-9077,8337,7823,7437,1996,-235,41,-74,-12,29
1619049630.6552205,-9073,8354,7808,7440,2003,-322,56,-110,-2,40
1619049630.6728065,-9076,8361,7803,7434,2009,-294,53,-10,-11,46
1619049630.6891127,-9084,8362,7800,7426,2008,-278,72,30,-5,53
1619049630.7152276,-9088,8366,7798,7419,2009,-251,43,13,-5,58
1619049630.7398958,-9085,8376,7791,7419,2010,-278,24,-55,0,39
1619049630.749798,-9081,8382,7787,7420,2009,-283,35,-44,-3,11
1619049630.7755325,-9085,8381,7789,7415,2022,-287,45,38,-3,13
1619049630.7933407,-9090,8371,7799,7409,1999,-241,38,85,-5,-2
1619049630.822762,-9088,8368,7803,7410,2002,-256,19,10,8,-23
1619049630.8324838,-9081,8366,7807,7418,1991,-248,35,-23,2,-46
1619049630.8534822,-9075,8365,7810,7422,2014,-297,42,-19,-4,-53
1619049630.872188,-9075,8358,7816,7423,2014,-275,59,35,-5,-43
1619049630.8981478,-9074,8350,7826,7424,1990,-228,41,46,-7,-37
1619049630.959348,-9063,8353,7824,7435,2027,-255,52,-76,-1,-43
1619049630.9694438,-9056,8356,7821,7444,2041,-312,67,-60,-2,-52
1619049630.9832666,-9065,8349,7828,7434,2034,-268,57,57,-11,3
1619049630.9956372,-9061,8355,7824,7436,2016,-257,48,-48,-10,20
1619049631.0125072,-9053,8373,7809,7442,2000,-288,48,-130,-4,34
1619049631.0348313,-9050,8386,7795,7445,2012,-307,65,-98,1,42
1619049631.049711,-9059,8391,7785,7438,2017,-318,74,5,7,60
1619049631.0699594,-9075,8387,7784,7425,2007,-272,70,86,4,74
1619049631.0931206,-9081,8392,7779,7417,1997,-252,35,13,4,78
1619049631.1150403,-9080,8400,7771,7418,2005,-240,38,-49,7,64
1619049631.129671,-9080,8410,7762,7417,2010,-277,45,-55,1,60
1619049631.1536486,-9084,8413,7757,7412,2013,-284,60,4,-1,50
1619049631.1769118,-9090,8411,7760,7405,2001,-260,38,48,-1,37
1619049631.189806,-9089,8410,7762,7404,1973,-225,36,7,0,22
1619049631.213036,-9081,8418,7756,7412,2018,-251,32,-83,7,9
1619049631.2348769,-9072,8429,7744,7423,2037,-307,42,-118,19,-2
1619049631.2651749,-9070,8432,7733,7435,2026,-331,78,-75,41,-23
1619049631.279479,-9074,8426,7726,7442,2018,-307,64,-8,59,-21
1619049631.295059,-9077,8419,7725,7449,2017,-295,43,8,59,-34
1619049631.3092318,-9077,8412,7722,7458,2015,-287,42,-8,60,-37
1619049631.3335583,-9081,8410,7716,7462,2024,-311,40,-5,52,-4
1619049631.3549063,-9086,8408,7709,7465,2024,-313,56,-6,52,1
1619049631.3850257,-9090,8407,7701,7471,1992,-316,51,-18,64,-4
1619049631.4046125,-9102,8399,7697,7468,1979,-308,66,56,56,13
1619049631.4147606,-9119,8385,7701,7460,1978,-276,64,119,46,25
1619049631.4460902,-9139,8372,7702,7448,1989,-266,49,135,58,61
1619049631.4594524,-9160,8364,7694,7440,1997,-271,58,88,87,95
1619049631.4744673,-9179,8361,7677,7438,1977,-300,81,25,102,91
1619049631.5965438,-9194,8357,7667,7434,1980,-254,107,37,60,88
1619049631.6077063,-9211,8350,7664,7423,1974,-269,51,94,57,83
1619049631.636199,-9189,8449,7567,7439,1973,-210,78,-287,-19,51
1619049631.6460018,-9155,8478,7545,7471,2006,-302,85,-325,-1,-36
1619049631.6555908,-9153,8477,7543,7476,1978,-426,50,-17,36,-76
1619049631.6771686,-9193,8423,7590,7441,1967,-461,0,506,36,-145
1619049631.7075624,-9253,8320,7695,7374,1990,-375,-95,951,-7,-246
1619049631.7172954,-9299,8203,7831,7302,1994,-233,-139,1048,-99,-321
1619049631.7373922,-9311,8115,7951,7255,2011,-120,-100,751,-163,-310
1619049631.7618778,-9287,8082,8019,7248,1990,-101,-8,224,-180,-233
1619049631.7907426,-9224,8112,8034,7280,1987,-168,39,-318,-195,-178
1619049631.800256,-9139,8180,8007,7339,2037,-252,105,-681,-186,-138
1619049631.8246384,-9065,8249,7964,7400,2061,-341,164,-706,-138,-118
1619049631.8453972,-9023,8289,7934,7440,2064,-399,194,-440,-94,-121
1619049631.860597,-9019,8291,7927,7449,2033,-398,223,-67,-70,-102
1619049631.876664,-9048,8267,7937,7430,2033,-353,234,219,-49,-21
1619049631.9079401,-9093,8231,7952,7399,2070,-277,207,351,-8,51
1619049631.9193828,-9129,8200,7963,7377,2057,-199,140,282,33,74
1619049631.9312925,-9146,8191,7955,7376,2029,-153,99,53,69,96
1619049631.9625535,-9147,8206,7925,7390,2017,-168,68,-162,94,130
1619049631.9726443,-9143,8238,7882,7406,2023,-227,50,-265,97,158
1619049632.0029323,-9141,8270,7837,7420,2020,-277,58,-255,96,157
1619049632.014365,-9146,8287,7805,7428,2019,-284,41,-137,106,118
1619049632.0378988,-9161,8284,7791,7428,1991,-278,31,14,117,62
1619049632.0676677,-9181,8265,7791,7425,1973,-249,38,128,113,17
1619049632.077419,-9200,8237,7802,7420,1965,-215,40,186,96,-14
1619049632.0977998,-9212,8210,7817,7420,1968,-190,31,157,79,-42
1619049632.1219096,-9209,8195,7827,7430,1978,-181,22,42,64,-67
1619049632.1503618,-9194,8190,7830,7450,1985,-193,24,-75,52,-91
1619049632.1615794,-9173,8196,7827,7473,1969,-223,44,-144,22,-90
1619049632.173065,-9152,8208,7821,7492,1993,-267,61,-156,0,-75
1619049632.1977124,-9138,8214,7818,7506,2029,-304,71,-106,0,-82
1619049632.2205174,-9123,8215,7822,7517,2058,-285,62,-60,-10,-102
1619049632.2359264,-9109,8218,7826,7527,2064,-288,59,-62,-17,-95
1619049632.2622313,-9097,8226,7826,7535,2057,-291,61,-80,-17,-61
1619049632.27945,-9088,8236,7820,7539,2060,-308,70,-80,-16,-29
1619049632.2912793,-9086,8245,7814,7539,2036,-328,85,-51,-12,-8
1619049632.3142662,-9093,8247,7809,7533,2022,-331,98,17,-2,11
1619049632.3455994,-9106,8242,7812,7519,1992,-297,83,97,-1,27
1619049632.3718545,-9122,8234,7819,7502,1979,-264,81,138,-7,41
1619049632.3824337,-9137,8225,7827,7485,1976,-221,77,130,-11,59
1619049632.3966749,-9149,8223,7828,7471,1993,-216,75,80,-3,79
1619049632.4115376,-9160,8222,7827,7460,2005,-228,93,62,0,80
1619049632.4344263,-9170,8218,7828,7451,2030,-218,95,60,-1,64
1619049632.457877,-9180,8211,7829,7445,2026,-221,107,65,9,40
1619049632.4822335,-9189,8197,7833,7445,2030,-211,118,79,32,3
1619049632.5033667,-9197,8178,7837,7452,2035,-209,113,70,62,-36
1619049632.5169508,-9205,8160,7841,7459,2017,-242,97,71,76,-56
1619049632.5398436,-9219,8135,7846,7462,1999,-248,119,116,82,-57
1619049632.5567753,-9237,8104,7854,7466,2007,-237,113,159,101,-70
1619049632.580102,-9254,8067,7867,7471,2013,-222,109,181,113,-97
1619049632.5994573,-9267,8036,7875,7480,2028,-218,113,130,118,-97
1619049632.6161668,-9274,8016,7873,7494,2016,-225,118,39,117,-67
1619049632.6380093,-9281,8003,7864,7509,2019,-252,131,-3,116,-51
1619049632.6559231,-9288,7992,7855,7522,2039,-270,120,-4,122,-49
1619049632.6746235,-9299,7981,7844,7531,2065,-290,120,18,125,-34
