1619049024.6757886,-3,0,3,-1,-3,-5,2,5
1619049024.6792474,0,-1,0,-2,-1,-2,0,1
1619049024.6823728,-1,-2,-1,-1,1,1,-1,-4
1619049024.6843853,-2,-3,-4,-3,-2,-1,0,2
1619049024.6871204,0,2,1,2,-1,-1,-3,-1
1619049024.6890337,0,-2,-4,-3,1,1,-3,-4
1619049024.6917527,1,0,-2,-4,-2,-2,0,0
1619049024.693772,0,0,0,1,-4,-4,0,0
1619049024.6965113,1,-2,-3,-3,-1,0,0,-5
1619049024.699294,-2,-2,-2,-2,0,-2,-1,-1
1619049024.7054534,-2,0,1,1,-3,-3,0,3
1619049024.7074122,-1,1,-1,-1,0,0,-1,-1
1619049024.7101355,-1,-2,-4,-2,1,0,-1,-3
1619049024.7126865,-3,-2,-2,0,-1,-2,0,1
1619049024.7163455,0,-1,-1,-3,-3,-1,-2,-2
1619049024.7181883,0,1,-2,-2,0,-1,-2,-2
1619049024.7208276,-1,1,-2,0,-2,-1,-2,-1
1619049024.7226312,-1,0,0,2,0,-2,1,0
1619049024.7402232,0,-1,-2,-1,1,0,-2,1
1619049024.7423213,-1,-4,-2,-2,-1,2,-1,0
1619049024.7479932,-1,-2,2,-1,-2,-2,1,1
1619049024.7497635,0,1,0,2,-1,1,-1,-1
1619049024.7639446,0,-1,-2,-1,-1,0,-1,-2
1619049024.7659564,-1,1,1,0,0,-3,-5,-1
1619049024.7699358,0,-4,-2,-1,1,0,-2,-1
1619049024.772065,0,0,-1,2,-1,-2,-3,-1
1619049024.7780674,-1,-1,-2,1,-1,-1,1,-1
1619049024.7799566,0,-1,0,1,1,-2,1,-2
1619049024.7824993,0,-1,0,3,0,-1,-1,-2
1619049024.7842586,0,0,1,-4,0,-1,-1,-2
1619049024.8008215,-2,-3,-1,1,0,-2,0,0
1619049024.802898,-2,-1,-3,-2,-2,-1,-2,-1
1619049024.8056433,-3,-3,-1,0,-2,0,-1,-2
1619049024.8075686,-2,-2,-3,-1,-2,-2,0,0
1619049024.8157504,0,1,-3,-2,-1,-2,-1,-2
1619049024.8177028,0,-1,-2,-2,-2,-4,-2,1
1619049024.820269,0,-2,-1,-1,0,-1,0,-2
1619049024.8221529,0,0,-1,-1,-3,1,0,-1
1619049024.85386,-1,0,-1,0,-1,0,-1,-1
1619049024.8559387,-2,-3,1,0,0,2,2,-1
1619049024.8587966,-1,0,-1,-1,-1,0,1,0
1619049024.8607566,1,-2,0,0,-2,-1,-2,0
1619049024.8642273,-2,0,-1,-4,-2,-3,-3,-1
1619049024.866089,1,0,1,1,-1,-1,-3,-2
1619049024.868572,-1,0,-2,-3,0,-1,-1,-1
1619049024.8704329,-1,0,-2,-1,-1,0,-1,-1
1619049024.882707,-1,-1,-2,0,0,0,1,1
1619049024.884526,0,-1,-3,-6,1,1,1,0
1619049024.8904157,-1,-1,-1,-1,0,-1,-1,-1
1619049024.8921332,-2,-3,-1,-1,-3,-2,-1,0
1619049024.8975852,-3,-3,-1,-1,-3,-3,-3,-2
1619049024.8993099,0,-1,-3,-1,-2,-1,0,-3
1619049024.901768,0,-1,0,-1,-2,0,-1,0
1619049024.9034884,-1,-1,1,0,0,0,0,-1
1619049024.9209607,-2,-3,-3,-2,1,-1,-2,-1
1619049024.9227266,-1,-2,-3,-3,-2,-3,-3,0
1619049024.9250658,-2,0,0,-1,-1,-1,-3,0
1619049024.9267797,-2,-1,0,1,0,0,-3,-2
1619049024.935444,0,-2,-1,-1,0,0,0,-2
1619049024.9371634,0,-2,0,1,-1,-1,1,-1
1619049024.9395497,-1,0,-3,-1,-1,0,-1,-1
1619049024.9412224,1,0,-2,-5,-1,-1,1,0
1619049024.966321,0,0,2,0,-2,-2,1,0
1619049024.9683397,-1,-1,1,4,-1,2,1,-1
1619049024.9710422,-1,-1,0,-1,-3,1,-1,1
1619049024.972901,0,-3,-1,0,-2,-2,1,-1
1619049024.9973376,-1,-1,2,1,1,-1,-1,-2
1619049024.999232,-1,1,-1,1,2,-1,-1,-2
1619049025.0019283,0,-2,-2,0,-1,-2,-3,0
1619049025.00377,0,0,1,1,-1,-2,-3,0
1619049025.0070834,0,-2,0,-2,-1,0,0,-1
1619049025.0087736,-1,0,-1,-3,-4,-1,0,-1
1619049025.0111058,-2,-1,-3,-6,-2,0,1,-1
1619049025.0127866,-2,-2,-2,-4,-1,0,-2,-1
1619049025.0178564,-2,0,-1,0,-1,-4,-2,0
1619049025.0196412,-1,-1,0,-1,0,0,0,-2
1619049025.0220187,-1,-3,-1,-1,0,-2,-1,-2
1619049025.023753,-1,-1,0,-2,-3,-1,0,0
1619049025.0425427,-1,-1,-1,-2,-3,3,-2,-2
1619049025.0443602,-2,0,-2,0,-2,-3,-3,-1
1619049025.0467246,1,-2,-2,0,-2,-4,-4,-2
1619049025.0484264,0,-2,-2,1,1,-1,-2,-1
1619049025.0646653,-1,-2,-1,-1,-1,0,1,2
1619049025.0664182,1,-1,-1,-1,-3,-2,0,1
1619049025.0689235,0,0,-2,-1,1,0,0,-1
1619049025.070623,-3,-3,-1,-1,-1,-2,-2,-2
1619049025.0775375,0,-1,1,0,-1,-2,-1,-2
1619049025.0792623,-1,0,-2,-1,0,1,-1,0
1619049025.0816069,-2,-1,-1,0,0,1,-1,-1
1619049025.0833158,0,0,0,2,-2,-1,-2,-1
1619049025.1009002,-1,1,-1,-1,1,-1,-1,0
1619049025.102804,-1,-2,-1,0,0,-3,-1,-3
1619049025.1052892,-1,-1,-1,-2,-2,-3,0,0
1619049025.1070085,-1,1,-2,-2,0,-1,-1,-1
1619049025.1236427,0,-1,-2,-2,-1,-2,-3,0
1619049025.1253655,-3,0,0,-1,-1,-1,-1,-1
1619049025.1277633,-1,-1,1,2,0,3,3,2
1619049025.1294436,0,0,0,-1,0,-3,0,-2
1619049025.137538,1,1,3,5,-1,-2,-2,0
1619049025.139279,-1,-1,-3,-2,-3,0,-1,2
1619049025.1416273,0,0,-1,-2,-1,1,-1,-1
1619049025.1433444,-1,-2,0,0,0,-2,-2,-1
1619049025.1615477,-2,1,0,2,1,1,0,0
1619049025.1633813,-1,-2,1,1,-1,-1,1,0
1619049025.1659782,0,2,-1,-1,-1,0,-2,0
1619049025.1676683,0,0,-1,0,-1,-2,-1,-1
1619049025.1747396,2,-1,-4,-5,-3,-3,-1,0
1619049025.1764526,-1,1,0,2,2,1,-1,-1
1619049025.18298,-1,0,-1,-1,-3,-4,-2,-3
1619049025.1848269,-1,-2,-2,-2,-1,-2,0,-1
1619049025.1976638,-2,-2,-2,-1,-1,0,-1,-2
1619049025.199527,1,-2,-2,-2,-1,0,-2,0
1619049025.2020764,-1,-1,0,0,-2,1,-1,1
1619049025.2038403,-1,-1,-1,-3,-2,0,0,0
1619049025.2292385,-1,0,-1,-3,0,0,0,-1
1619049025.231164,-1,0,2,1,-3,-2,0,-1
1619049025.233691,-1,-1,3,4,0,-4,-1,-1
1619049025.235535,-1,-2,-2,-1,-1,-1,-2,-1
1619049025.2749586,-1,-2,-1,-3,-1,1,0,0
1619049025.27686,-1,0,-1,-2,-1,-3,-4,-1
1619049025.2793987,0,0,-2,0,1,-2,0,0
1619049025.281215,1,0,-2,-1,-1,1,1,-1
1619049025.2845824,-3,-2,-2,0,-4,-2,-2,-1
1619049025.28654,1,-1,0,0,0,1,-1,-1
1619049025.2895494,0,-1,-1,-2,-3,4,1,1
1619049025.2913797,-2,-2,-1,-1,-3,-1,-1,0
1619049025.2945883,-1,-1,1,0,-1,0,-2,-3
1619049025.2962718,-3,-2,-2,-3,0,1,0,0
1619049025.2986543,-1,-1,-5,-3,0,2,0,0
1619049025.300339,-2,1,-1,0,-2,-2,0,0
1619049025.3042405,0,0,-1,1,0,-1,1,0
1619049025.3059764,-2,-3,-4,-2,-2,0,1,-2
1619049025.3083193,-2,-2,-2,-2,-1,-2,-1,-2
1619049025.310025,2,3,6,6,2,0,-2,0
1619049025.3196895,0,1,-1,-1,-1,-2,-4,0
1619049025.3213925,1,-1,-1,-3,0,-1,-1,0
1619049025.3237746,0,-1,1,-2,0,-4,-5,-1
1619049025.3254519,-1,-2,-5,-2,-2,0,1,-3
1619049025.3486397,1,-1,-1,-1,-2,-3,-3,-1
1619049025.3503892,0,-1,2,0,1,0,-1,0
1619049025.3529031,0,1,-1,0,-3,-1,-1,0
1619049025.3546236,-4,-2,-5,-5,-3,-1,1,0
1619049025.3576403,0,-1,0,1,0,-1,-1,-1
1619049025.3593473,-1,-1,-2,-2,-4,-1,-2,1
1619049025.363035,-2,-1,-2,-1,-1,-2,0,7
1619049025.364745,-1,-1,-1,-3,-1,-2,-1,4
1619049025.3777423,-3,-3,-2,-4,-3,1,1,-1
1619049025.3794954,-1,2,-1,-1,0,-3,-1,-3
1619049025.3818653,-1,-1,1,4,0,1,-3,-6
1619049025.3835642,-1,0,0,3,1,-1,-2,-3
1619049025.400858,-5,-1,-3,-3,-2,-1,-1,-4
1619049025.4027624,-3,-2,-2,-1,0,-3,-1,-5
1619049025.405225,-4,0,0,0,-2,-4,-1,-5
1619049025.4069514,-2,-2,-4,-4,-1,0,-2,-2
1619049025.424869,3,0,1,0,0,1,0,-1
1619049025.426738,-1,0,1,2,-1,-2,-2,1
1619049025.4290788,0,-2,-2,-2,-2,-2,0,0
1619049025.4308224,-1,-1,0,0,-1,0,-1,-1
1619049025.437865,-1,-1,-3,-2,0,1,1,-1
1619049025.4397564,-2,-1,-2,-1,-1,0,1,0
1619049025.442231,0,1,-2,-2,-2,1,-1,0
1619049025.4439168,-1,0,0,-1,0,-1,-2,-1
1619049025.4682481,0,-1,0,1,0,-2,-1,2
1619049025.4703047,-2,-1,-1,-1,-2,0,0,1
1619049025.475457,-2,-3,-1,-1,2,0,-2,-1
1619049025.477274,0,-1,0,-1,-3,-2,-3,-1
1619049025.4848332,-4,-2,-3,0,-1,-2,0,0
1619049025.486828,-3,-3,-5,-7,-3,8,4,-2
1619049025.4893239,-3,-2,-1,0,-2,-5,-3,-4
1619049025.4910338,-1,-1,-1,0,1,-1,-1,-1
1619049025.5076025,0,-1,0,-2,-2,2,-2,0
1619049025.5092983,0,-2,1,0,-1,-1,0,-1
1619049025.5116675,-1,-2,-2,-3,0,-1,-1,-2
1619049025.513348,-1,0,-1,-1,-3,1,1,-1
1619049025.5354068,-3,-1,-2,1,-1,-2,-2,-3
1619049025.5374675,1,-3,-1,2,-1,-1,-3,1
1619049025.5673523,2,0,-2,-4,-3,0,1,2
1619049025.5693607,0,-3,0,-1,-1,-2,0,-1
1619049025.5728183,1,2,0,-1,0,0,-2,-2
1619049025.574671,-1,0,1,0,1,-4,-3,-2
1619049025.5770957,-1,-1,-1,-2,1,1,1,1
1619049025.578793,-2,-2,-2,-1,1,2,-2,-2
1619049025.5983963,-2,-2,0,-2,-4,0,1,1
1619049025.6000998,-2,0,0,1,0,-3,-1,0
1619049025.6026177,-2,0,0,-1,-1,0,-1,-1
1619049025.604307,-2,-1,-3,-2,-1,-2,1,2
1619049025.6066418,0,-1,0,-1,-1,-3,1,-1
1619049025.6083326,1,0,-2,-1,0,-1,0,-2
1619049025.6106522,0,0,-1,-2,-2,0,-1,0
1619049025.6123297,-1,1,-1,-2,-3,3,2,-2
1619049025.615337,0,-1,-3,-4,-1,-1,-1,1
1619049025.6170332,1,-3,-4,-2,-1,0,0,0
1619049025.6194687,0,-1,0,1,1,-1,1,-1
1619049025.6211512,-2,-3,1,1,0,-1,0,0
1619049025.6260457,2,1,1,-1,-1,-2,-3,0
1619049025.6277702,0,0,-1,-3,-1,-2,-1,-3
1619049025.6301105,-2,0,1,3,1,-3,-4,0
1619049025.631816,-1,-1,-1,-2,-4,-3,-4,-2
1619049025.6392956,-1,-3,-2,-1,0,-1,0,-1
1619049025.6410007,0,0,-1,0,1,-3,-3,1
1619049025.656075,0,0,2,0,-1,-2,-1,-2
1619049025.6577632,0,0,0,0,1,-1,-1,-1
1619049025.6637466,-2,-1,-1,0,1,0,-2,-1
1619049025.6654687,-2,1,2,-1,-6,-5,-5,-1
1619049025.669074,1,-4,-3,-2,0,1,1,-3
1619049025.6710925,1,-2,-1,-3,-3,-3,-1,0
1619049025.6859798,0,-2,-2,-1,-2,-2,1,0
1619049025.6877108,1,0,3,3,6,2,1,0
1619049025.690795,-1,0,-1,-4,-1,-2,-2,0
1619049025.6924803,0,-4,-2,1,-1,-3,0,-1
1619049025.7011163,1,2,0,-1,1,-3,-3,-2
1619049025.7029738,-1,-2,-1,-2,-9,-5,-3,-2
1619049025.7087622,-2,-1,-2,-3,4,6,1,0
1619049025.7104907,-1,0,0,-1,0,3,0,0
1619049025.7236032,-1,-1,-3,3,-4,2,-2,-1
1619049025.7253168,0,1,4,5,18,2,0,-1
1619049025.7283785,-1,0,-1,0,-4,-4,1,0
1619049025.730163,-1,0,0,-4,-7,0,-1,-4
1619049025.7462034,1,0,2,5,-1,-6,-3,-3
1619049025.748251,1,-1,0,5,2,-3,1,0
1619049025.7515678,-2,-3,-4,-5,-4,4,-3,-2
1619049025.7533486,0,-1,-2,-7,-3,-2,-3,-1
1619049025.760007,0,2,5,12,14,4,3,2
1619049025.7620032,-2,-1,-1,-15,-6,3,0,0
1619049025.7760725,0,-1,-2,3,7,3,0,0
1619049025.7780716,-3,-5,-13,-23,-19,-6,-1,0
1619049025.7828395,-6,-15,-44,-7,4,4,0,-2
1619049025.784715,8,32,81,31,-8,-4,0,2
1619049025.815749,-3,-9,-28,-33,-9,-4,1,-2
1619049025.8177915,0,2,14,23,-23,-11,-3,-2
1619049025.820704,-1,-4,-10,-8,17,4,-1,-1
1619049025.8227625,-5,-18,-48,-24,2,2,2,0
1619049025.8455274,3,13,42,27,-6,-4,-4,-2
1619049025.847352,-1,-3,-6,14,22,6,5,1
1619049025.8498049,3,1,4,8,3,5,2,0
1619049025.8516748,-5,-5,-5,7,7,-5,-4,-2
1619049025.875044,-2,-6,-19,-48,-34,-6,0,2
1619049025.8770652,1,3,-4,-13,-2,-4,-3,-1
1619049025.8797479,-2,-8,-25,-32,-18,-4,1,1
1619049025.881592,5,9,24,55,8,11,4,0
1619049025.884717,-5,-2,8,4,16,-14,-8,-4
1619049025.8865657,-6,-13,-38,-11,-4,-5,-4,-2
1619049025.8896377,4,17,56,26,-12,5,3,1
1619049025.8915005,7,9,10,-38,-22,7,6,4
1619049025.8947315,1,-4,12,45,77,21,8,-1
1619049025.8965828,-8,-6,-18,-3,-38,-6,-7,1
1619049025.899129,-4,-5,-7,-41,-29,-24,-8,-1
1619049025.9009933,-3,-8,-25,-2,-6,-12,-5,-2
1619049025.918452,-2,-1,-26,-20,-25,0,1,0
1619049025.920346,10,26,87,74,58,7,3,3
1619049025.9341364,-1,3,11,7,5,11,4,0
1619049025.9360468,-13,-34,-90,-71,-21,-5,-2,-5
1619049025.9644017,2,7,32,8,-21,-8,-2,-1
1619049025.9664452,3,6,-16,39,30,26,10,2
1619049025.9700642,-3,-10,-33,-56,-31,-15,0,-4
1619049025.9720702,-10,-17,-35,56,15,-24,-15,-7
1619049025.9808183,-10,-17,-41,-29,10,2,-9,-6
1619049025.9826965,3,22,89,-14,-48,-22,-12,-3
1619049025.9851952,3,13,48,67,6,2,0,3
1619049025.9871306,-4,-12,-37,-45,14,7,3,-1
1619049025.993099,7,9,-9,0,-8,4,6,3
1619049025.9949486,0,-2,-5,3,6,-7,-1,-1
1619049026.0023572,-3,2,16,18,-24,-11,-8,-6
1619049026.0043104,-1,-9,-46,-29,57,17,11,1
1619049026.0068676,-14,-33,-95,-15,-44,-12,-14,-11
1619049026.008724,15,40,87,49,51,30,12,11
1619049026.0326982,8,19,45,2,14,3,2,4
1619049026.0347393,-7,-9,-17,-4,-6,-19,-10,-4
1619049026.0374446,-6,-15,-31,-57,2,-4,0,0
1619049026.039326,4,22,77,92,-6,-13,-6,-2
1619049026.0427167,0,-7,-30,-20,-29,-42,-3,0
1619049026.0445924,-9,-18,-53,-74,14,42,1,-6
1619049026.0471072,-1,1,-2,-23,-12,-5,0,3
1619049026.0488992,8,9,36,55,77,21,8,3
1619049026.0602362,-4,-4,4,12,-17,3,0,-2
1619049026.062102,-1,-5,-5,26,3,-20,-1,1
1619049026.0694149,2,10,24,-10,21,-5,-4,0
1619049026.0713253,-2,-12,-44,-58,3,11,5,2
1619049026.074609,-4,-9,-20,50,22,14,1,-4
1619049026.0764537,-8,-7,-12,-63,-64,-23,-12,-6
1619049026.0906312,4,8,16,40,25,9,4,1
1619049026.0931933,-9,-14,-32,-66,-41,-11,-8,-4
1619049026.1234848,7,3,0,-29,-21,-6,4,4
1619049026.1254795,0,1,18,68,51,21,0,-3
1619049026.1282225,-2,2,10,10,12,-9,-2,-1
1619049026.1300933,-13,-29,-102,-113,-55,-12,-7,-5
1619049026.1332688,15,28,55,37,-36,-4,6,7
1619049026.1351588,8,25,62,8,-8,7,2,4
1619049026.1378007,-1,5,24,82,-1,3,0,-4
1619049026.139674,-3,-3,6,-38,-15,-4,-4,0
1619049026.1536884,9,19,48,45,4,11,5,4
1619049026.1556222,7,6,-2,-49,-26,7,7,4
1619049026.1589396,-8,-5,0,-28,-29,-12,-10,-3
1619049026.1607554,-11,-10,-5,16,12,-15,-13,-8
1619049026.1673288,-5,-3,-6,-40,-21,-14,-9,-3
1619049026.1691535,2,6,21,100,43,17,7,1
1619049026.172354,1,-6,-26,-45,21,4,2,1
1619049026.1741815,2,0,-15,-62,-69,-24,5,2
1619049026.1766293,-7,-11,-16,-8,-35,-5,-10,-6
1619049026.1783693,-1,6,39,65,4,-5,-6,-4
1619049026.19669,-4,-10,-21,-8,-2,-10,-4,-4
1619049026.1985934,-1,-7,-33,-8,-21,-7,4,3
1619049026.2011147,0,3,14,-71,-43,-11,-4,-3
1619049026.203061,-12,-14,-20,-59,-67,-29,-16,-8
1619049026.2062905,-3,-7,-10,26,14,21,6,-1
1619049026.208151,-3,-8,-14,-5,16,-2,-8,-5
1619049026.2107325,6,7,-1,-31,13,12,6,4
1619049026.2125483,-2,-6,-18,-24,-19,-1,-2,-2
1619049026.2157135,-1,5,21,36,43,1,-4,-3
1619049026.2174761,-5,-12,-29,-42,-20,1,-3,-2
1619049026.2268503,0,-4,-8,-9,20,9,5,0
1619049026.228721,-2,4,14,8,11,-15,-8,-2
1619049026.2319472,4,1,1,49,91,41,11,3
1619049026.2337766,2,6,18,9,-25,2,2,0
1619049026.2487862,-5,-10,-33,-44,-1,-2,-1,0
1619049026.250782,6,7,13,75,67,35,12,1
1619049026.254085,0,-2,-9,-6,-7,0,-1,-1
1619049026.255938,0,6,43,87,52,8,-2,-3
1619049026.2710407,0,4,11,39,1,-3,0,2
1619049026.2728782,-2,-7,-11,-19,-41,-15,-1,-2
1619049026.2760887,-5,-8,-26,-58,-32,-16,-11,-4
1619049026.2778914,7,18,58,82,36,19,6,3
1619049026.2866,-4,-10,-28,-27,2,-13,-5,-2
1619049026.2886481,2,6,11,27,7,-9,-3,-1
1619049026.2918828,-4,2,7,1,-33,-5,-3,-1
1619049026.2936914,1,-7,-38,-51,12,-4,4,1
1619049026.3085687,-2,-3,-4,19,-11,-5,-1,-2
1619049026.310485,3,5,29,42,-5,-21,-2,1
1619049026.3136368,-4,-8,-24,-54,4,10,-5,-2
1619049026.3154256,-1,1,6,29,-54,-6,-3,-1
1619049026.3462417,2,1,1,17,27,13,6,3
1619049026.348248,-5,-5,-12,-17,30,18,1,-2
1619049026.378528,-1,-2,5,14,-19,-29,-8,-2
1619049026.3805268,-4,-7,-27,-43,17,-1,0,-1
1619049026.3832207,4,20,71,88,16,0,-3,-1
1619049026.3851604,6,1,-23,-17,-20,9,9,7
1619049026.4011273,-7,-7,3,27,14,1,-6,-5
1619049026.4035623,4,9,16,33,40,9,6,4
1619049026.4063306,-6,-15,-40,-20,16,1,-2,-5
1619049026.4082913,3,6,16,3,-3,-7,-1,-1
1619049026.4286385,14,41,84,80,38,21,10,8
1619049026.430632,-4,-2,-7,-7,-7,-13,-7,-3
1619049026.4374714,1,0,-15,-14,-19,-2,4,3
1619049026.4395175,-1,-5,-8,-23,-3,16,1,-2
1619049026.4422574,7,3,14,45,46,26,11,3
1619049026.4441147,-9,-11,-17,-45,-31,-14,-10,-4
1619049026.4473598,5,8,18,13,16,7,6,4
1619049026.4491765,-1,2,8,1,-33,-11,-5,-1
1619049026.4517007,-2,-12,-31,4,-4,-8,0,-2
1619049026.4535894,-1,-3,-8,-19,7,2,0,-1
1619049026.465066,-3,-8,-23,-53,-26,-6,-6,-2
1619049026.4671066,-7,-16,-44,-29,21,32,6,-2
1619049026.4749298,7,19,44,17,-6,3,6,4
1619049026.476776,-14,-16,-23,-45,-55,-34,-21,-13
1619049026.4793227,0,8,20,72,49,-8,-4,-1
1619049026.4811902,2,1,-1,-8,2,4,1,2
1619049026.4966671,-2,-16,-52,-38,4,6,4,2
1619049026.4985635,14,34,96,56,-29,1,8,7
1619049026.501253,-6,-12,-16,-26,-6,0,-4,-3
1619049026.5032206,-2,-3,-4,-18,-17,-10,-6,-1
1619049026.506457,-1,-2,-5,-2,-38,-16,-3,-1
1619049026.5083084,-2,-7,-15,24,29,0,-4,-3
1619049026.534803,-3,-2,-5,-41,-34,-6,-3,-1
1619049026.5368261,0,-3,-1,-5,35,2,0,-4
1619049026.5403163,2,9,37,39,13,2,-3,-2
1619049026.542111,1,-7,-35,-37,8,13,5,2
1619049026.5446014,-2,-4,3,-4,2,-5,-2,-1
1619049026.5464923,-3,0,10,28,-8,-3,0,0
1619049026.5501883,-2,-5,-2,30,-29,-30,-8,-4
1619049026.551954,2,-6,-33,-40,18,9,1,0
1619049026.5544972,2,-1,0,-13,-23,1,2,1
1619049026.5563385,-2,1,8,-9,-23,-2,-6,-2
1619049026.5595517,-1,-1,-12,-12,-13,-15,-2,0
1619049026.5614014,-3,-6,-13,9,40,19,6,0
1619049026.5797184,0,-1,-4,-33,-7,3,1,-1
1619049026.5816593,0,1,7,-2,-13,-10,-4,0
1619049026.586446,0,3,4,-9,0,-9,-4,0
1619049026.5883815,-3,-3,-2,23,25,13,3,0
1619049026.5909507,3,7,32,46,66,15,1,2
1619049026.5928094,1,-1,4,7,2,10,5,-2
1619049026.596211,-3,-4,4,31,86,30,5,-5
1619049026.5980523,6,9,13,9,-12,-3,2,4
1619049026.615093,-5,-10,-29,-27,-23,-10,-6,-5
1619049026.616956,1,0,1,-12,25,10,4,1
1619049026.6485846,2,5,18,56,8,3,-2,1
1619049026.65062,8,6,9,21,28,24,12,5
1619049026.6532726,-11,-11,-14,13,-16,-21,-13,-7
1619049026.6552913,2,4,9,8,11,4,1,3
1619049026.6776745,-7,-19,-44,-40,-7,3,2,-2
1619049026.679655,5,21,53,34,-10,-13,-8,1
1619049026.682428,-3,-15,-50,-60,-36,-4,0,0
1619049026.6843903,3,7,25,74,48,21,2,-1
1619049026.6879115,1,14,55,42,9,11,1,-2
1619049026.6898475,-1,-3,-10,-9,-11,-6,-1,0
1619049026.6932776,-3,-9,-32,-45,-20,-16,-2,-4
1619049026.6951895,-1,12,73,72,-4,2,-4,-5
1619049026.70776,0,-3,-24,-15,-1,3,3,1
1619049026.7097886,-4,-6,-11,-31,-20,-9,-6,-3
1619049026.713004,1,6,12,2,-5,-2,-1,2
1619049026.714942,-5,-8,-29,-38,-10,-11,-4,-2
1619049026.717425,0,-1,0,23,15,-12,-1,-1
1619049026.7193708,2,3,-6,-9,13,11,1,1
1619049026.7371073,-6,-1,9,38,37,11,-3,-1
1619049026.7389405,2,4,1,-7,-6,3,3,2
1619049026.741459,-9,-18,-43,-41,-2,0,-1,-2
1619049026.7434018,11,26,69,88,14,-11,1,4
1619049026.7466526,0,-2,2,5,10,-2,-3,-2
1619049026.7484353,-3,-9,-33,5,27,10,3,-2
1619049026.750976,2,13,49,56,23,-14,-7,-3
1619049026.7526996,-8,-14,-42,-69,-41,-10,-3,-2
1619049026.7666197,2,1,4,-6,-5,4,3,0
1619049026.7685122,1,2,17,32,21,0,1,-1
1619049026.7732947,2,-4,-21,-32,-35,-10,3,0
1619049026.775163,-2,-1,4,1,-14,-9,-4,-2
1619049026.778468,0,1,-1,5,15,11,2,1
1619049026.7803106,-6,-10,-26,-49,-16,-2,-2,-3
1619049026.79603,-1,-4,-23,-30,-13,9,1,-1
1619049026.7979188,1,3,20,16,-3,4,-1,0
1619049026.8041904,-1,3,26,57,-8,-9,-2,-1
1619049026.80607,0,-2,-10,-6,10,-3,-3,0
1619049026.8086853,-1,0,17,14,17,12,-2,-3
1619049026.8106534,-7,-22,-78,-53,-50,-13,-1,-2
1619049026.8141947,9,18,38,18,16,12,7,7
1619049026.8160603,-6,-9,-24,-24,-9,-10,-7,-6
1619049026.826477,2,4,5,12,15,5,2,2
1619049026.8283212,-8,-14,-30,-39,-19,-7,-3,-3
1619049026.831519,3,2,0,-29,-27,-14,-4,-1
1619049026.8333662,-2,-7,-35,-21,33,23,2,1
1619049026.8570437,-1,3,14,-1,-37,-27,-4,0
1619049026.859057,-3,3,6,-14,1,1,-3,-2
1619049026.862303,-3,-6,-7,1,-16,-7,-3,-3
1619049026.8641446,1,11,33,-3,-35,-13,-4,2
1619049026.870755,-4,-7,-17,-7,12,7,-2,-3
1619049026.8725367,3,6,17,28,8,-5,0,0
1619049026.875749,-5,-7,-16,-18,-33,-12,0,-2
1619049026.8775883,0,-3,-13,-7,-9,0,2,2
1619049026.8933837,1,3,7,-10,0,6,0,-1
1619049026.8952816,-2,3,22,24,9,4,-2,-2
1619049026.8994746,-1,-1,-7,-5,39,40,8,0
1619049026.901299,-1,-4,-6,-1,-8,-15,-4,-1
1619049026.92371,4,7,11,17,-17,4,2,1
1619049026.9256637,1,1,0,4,0,-2,1,0
1619049026.9290395,-2,-7,1,3,-15,-13,-3,-4
1619049026.930921,2,6,21,17,9,7,1,1
1619049026.9334335,-6,-17,-53,-39,-9,3,-1,-2
1619049026.9353378,3,2,8,-6,3,1,3,-1
1619049026.955847,-1,0,-1,-11,-40,-20,-2,3
1619049026.9578667,-8,-15,-35,-46,9,-5,-8,-9
1619049026.9604623,2,12,36,18,-14,-3,3,4
1619049026.962358,4,2,-6,21,20,10,8,4
1619049026.9843807,2,9,34,34,8,-12,-3,1
1619049026.9865367,-1,-6,-16,-12,13,5,0,-1
1619049026.989265,-4,-4,-10,-11,2,-4,-4,1
1619049026.9912229,-5,-7,-13,-15,6,4,-3,-1
1619049027.0001142,3,15,39,36,45,19,0,1
1619049027.0019221,-1,0,6,27,-12,-8,-4,0
1619049027.0045013,2,-1,-3,-6,10,1,1,-1
1619049027.0064054,-2,-6,-24,-31,-5,-7,3,0
1619049027.0143714,0,0,13,16,13,-13,-7,-3
1619049027.0162604,4,9,15,19,-12,-2,7,3
1619049027.0187867,-4,-3,-6,-1,-7,-14,-5,-3
1619049027.0205522,-6,-11,-24,-46,-49,-16,-7,-3
1619049027.023695,3,8,29,54,25,21,6,1
1619049027.025449,-3,0,5,28,-1,-1,-2,-1
1619049027.028592,1,2,4,-20,11,13,4,2
1619049027.030507,-5,-8,-7,10,6,-6,-7,-6
1619049027.043736,-2,-10,-32,-33,-16,5,1,-2
1619049027.0455444,-2,-6,-12,-6,-24,-19,-4,-1
1619049027.051882,1,4,27,31,-8,-1,-2,-1
1619049027.0537596,2,8,15,24,33,4,1,-1
1619049027.0746727,-5,-8,-22,-33,-9,1,-3,-2
1619049027.0766757,-1,-2,-5,-12,-11,-7,0,-1
1619049027.0794423,-1,-4,-15,-10,11,0,-2,-1
1619049027.081405,1,-3,-6,-27,-26,-2,-1,-1
1619049027.0848925,-1,8,17,5,-3,-1,-4,0
1619049027.0867743,0,0,2,7,19,8,1,-1
1619049027.0894,-2,-1,2,7,2,-6,-2,-1
1619049027.0913603,-1,2,14,14,-3,3,1,-1
1619049027.1020463,-2,-10,-36,-40,-11,-2,-1,0
1619049027.1039772,0,3,14,13,17,10,2,-1
1619049027.1120644,-1,0,-1,10,-9,-8,-4,-2
1619049027.1139402,-3,0,3,-13,6,-4,-4,-2
1619049027.117161,-3,-4,-14,-14,-4,-2,1,-1
1619049027.1190565,2,6,19,24,15,-3,-1,0
1619049027.1418352,-5,-8,-19,-35,-18,2,-1,-3
1619049027.1437085,1,3,7,22,9,0,-1,2
1619049027.146906,-1,-5,-9,-9,3,2,0,-3
1619049027.1488178,-1,1,9,-5,-16,-6,-4,-2
1619049027.202164,0,-2,-9,-3,3,2,1,0
1619049027.204219,2,3,11,17,8,-8,-3,0
1619049027.2327793,-2,-7,-19,-21,-5,-2,1,-2
1619049027.234844,0,6,15,-7,-11,-4,4,0
1619049027.2376223,-4,-4,-2,19,6,-1,-1,-2
1619049027.239654,-2,-1,2,4,8,4,0,-1
1619049027.2431684,0,-3,-4,3,0,0,-3,0
1619049027.2451544,-2,-4,-7,-7,-7,-5,-2,1
1619049027.262438,0,0,-3,-8,-5,-1,-3,-1
1619049027.264288,1,0,5,3,-3,4,-1,1
1619049027.2668543,-3,-2,-1,3,14,10,3,0
1619049027.2687097,-1,0,-5,-5,-6,1,0,-2
1619049027.272626,1,1,0,-4,-4,0,-1,-1
1619049027.2748141,0,0,3,8,1,0,-2,0
1619049027.2786996,-1,-2,-3,-2,-3,-6,-4,-2
1619049027.2807446,-2,-3,-4,2,11,5,3,0
1619049027.2839444,-3,-1,-1,-8,-13,-4,-2,0
1619049027.2869537,-2,2,2,9,5,-3,0,-2
1619049027.2920203,-1,0,-4,-4,-2,-2,-2,-1
1619049027.293984,-3,-1,0,-3,-2,-6,-4,-2
1619049027.2964654,-3,-2,-3,-1,2,-1,-2,-1
1619049027.2982051,-2,-2,0,0,-9,-9,-4,-3
1619049027.301308,-2,0,-2,-3,1,0,-2,-2
1619049027.303169,1,-2,0,-1,-4,3,0,0
1619049027.3057323,1,0,-1,-5,-9,-7,-2,-2
1619049027.3078039,0,-1,-3,3,12,7,1,0
1619049027.321248,-2,-2,-3,-5,-2,4,5,2
1619049027.323209,1,1,1,2,5,-2,-2,-2
1619049027.3363595,0,-3,-3,-4,-3,-5,-2,0
1619049027.3382194,0,-1,0,-1,-1,-3,-1,0
1619049027.3517323,1,-2,-1,-1,-2,-2,-1,-1
1619049027.3536248,-3,-2,-2,2,0,4,3,-1
1619049027.3561149,-2,-1,-1,-2,-1,0,-1,0
1619049027.3580952,-1,2,1,0,-1,2,-1,-2
1619049027.3614268,-1,-2,1,3,1,-6,-6,-1
1619049027.36328,-1,-1,-3,-1,-5,-3,0,0
1619049027.3656785,-1,-2,-2,-3,1,-1,0,-1
1619049027.3674836,-2,-1,2,-1,-2,0,0,1
1619049027.3969276,-2,1,1,0,-4,1,1,-1
1619049027.3989658,-1,0,-2,-1,0,-1,0,2
1619049027.4016914,-1,-3,1,3,1,-3,-1,1
1619049027.403717,3,0,-2,-2,0,-2,-1,-2
1619049027.4126568,0,-1,-3,-5,0,0,0,0
1619049027.4146483,2,0,-2,-1,-2,1,-4,-1
1619049027.41714,-1,-2,-3,1,3,3,0,-3
1619049027.418991,-2,0,-3,-6,-4,-2,-1,0
1619049027.4248466,-1,-1,0,4,-1,-8,-1,0
1619049027.426737,-2,-1,-2,-6,-2,1,0,-2
1619049027.4413798,0,1,-2,-2,-2,0,0,1
1619049027.4432645,-2,0,-1,1,0,-1,1,-1
1619049027.4481049,-1,0,-3,-2,-2,1,-2,-1
1619049027.4499943,-2,-2,-1,-1,-2,-3,-1,0
1619049027.452501,-1,1,0,-2,0,-2,0,0
1619049027.454421,-1,-2,-1,2,0,-3,-2,-1
1619049027.4810205,0,-1,-3,-2,-3,-1,-2,-2
1619049027.483021,0,-1,0,3,1,-1,1,-1
1619049027.485697,-2,-2,-3,-2,-3,-2,0,0
1619049027.487529,0,-1,1,0,1,0,-1,-1
1619049027.5102308,-3,-3,-3,-3,-2,6,0,0
1619049027.5122268,-1,-1,-1,-1,-2,0,-2,0
1619049027.5149407,-2,-1,-3,-3,-1,1,3,0
1619049027.5168703,0,-1,-5,-3,-1,-3,-1,-1
1619049027.5201063,1,0,1,1,0,-3,1,-1
1619049027.5219886,-2,-1,0,-2,-1,-1,-1,-1
1619049027.5398858,1,0,1,-1,-1,-2,-4,-2
1619049027.541856,-2,-3,0,1,1,0,-2,-1
1619049027.5450594,0,-1,-2,-2,0,-3,-3,0
1619049027.5469365,2,0,-1,0,0,1,-1,0
1619049027.5494018,-2,-1,-1,1,0,-2,-2,-1
1619049027.5512285,-1,1,0,1,-2,-2,-1,0
1619049027.5557258,-1,0,0,1,-1,-2,-1,-2
1619049027.5575445,0,1,1,2,0,-3,-2,0
1619049027.5600364,0,-3,0,-1,2,0,-1,0
1619049027.5617933,-2,-1,-1,0,0,-2,-2,0
1619049027.5683806,-2,-1,-2,-5,-4,-4,-1,-1
1619049027.570321,-5,-5,-6,-4,-2,7,3,-2
1619049027.5727615,-1,1,2,1,-1,-1,-1,-2
1619049027.5746284,1,-2,-1,-1,0,0,0,0
1619049027.5993915,0,-2,-1,-1,0,-1,-2,0
1619049027.60139,-1,-1,-1,-2,-2,-1,-1,-1
1619049027.6041214,0,-2,-2,-3,1,2,1,-2
1619049027.6061072,0,-1,-2,-2,-3,-2,2,-1
1619049027.6308436,-1,-1,-2,-3,0,1,-3,-3
1619049027.6327584,-1,0,0,0,-1,-1,-2,-2
1619049027.6353955,-2,-3,0,0,-1,0,-2,0
1619049027.6373503,0,1,2,3,-1,-4,0,0
1619049027.6433828,0,-1,1,3,1,1,1,-1
1619049027.6452525,-2,1,0,1,-1,-2,0,-2
1619049027.647766,-2,0,-3,-3,-3,-3,0,0
1619049027.6495492,-2,-3,-2,-2,-1,0,-1,0
1619049027.6747928,-3,-1,1,1,-3,-6,-5,-3
1619049027.6767242,-2,-1,-2,-1,-3,0,0,-3
1619049027.679969,-2,-1,-1,-1,0,3,-3,-1
1619049027.6818156,-1,-1,-1,0,-3,-4,-3,-2
1619049027.6896586,1,-1,-2,-2,0,0,-1,1
1619049027.6915538,-1,-1,-3,-3,-1,1,-1,-1
1619049027.6947515,-1,-1,0,2,-1,-2,1,-1
1619049027.6966095,-2,-2,1,1,1,-2,-2,1
1619049027.699121,-1,1,0,0,-2,-2,-2,-1
1619049027.7009912,-2,0,-2,1,2,-2,-2,-1
1619049027.7047296,-1,-1,0,-2,-2,-4,0,0
1619049027.7066333,0,0,-1,0,1,-3,-1,-2
1619049027.7876713,-1,-1,2,4,3,0,1,0
1619049027.7897954,0,0,0,0,2,1,-2,1
1619049027.7935793,-2,-1,-3,-1,-3,-1,-1,-2
1619049027.7956424,-1,-2,-2,-1,-1,-1,0,-2
1619049027.798374,-1,0,-2,-2,-2,1,-2,0
1619049027.8003366,1,-2,1,-1,-3,-1,-3,-1
1619049027.8173711,0,0,-2,-1,0,0,-1,0
1619049027.8192255,-1,-2,-1,-3,-1,-6,-1,-2
1619049027.8217127,0,-3,-2,-2,-1,-1,0,0
1619049027.8236542,-1,0,1,4,1,-1,-2,-2
1619049027.8332381,1,0,-3,-1,-1,-2,1,-1
1619049027.8351147,0,0,-1,1,-1,-1,-1,0
1619049027.837583,-2,-2,-2,-3,-2,2,1,-1
1619049027.8392844,-3,0,0,1,-2,-2,0,-2
1619049027.8622077,0,-1,-3,-1,-2,-2,-1,0
1619049027.8641813,0,0,1,-2,-2,1,-1,-2
1619049027.8773856,-2,-1,-1,0,-1,1,-1,-2
1619049027.8794012,-1,0,-2,-2,-1,0,0,-3
1619049027.881894,0,-2,1,-2,-2,-3,-2,-1
1619049027.8837378,-2,-1,0,2,1,-5,-2,-1
1619049027.8868983,1,0,-1,-2,-1,-1,-1,-1
1619049027.8887048,0,-1,-2,1,-3,1,-1,1
1619049027.8911984,1,1,0,2,2,-6,-5,-2
1619049027.8930469,0,-2,-5,-3,-3,1,1,-2
1619049027.8962626,-1,0,1,1,-2,-2,-2,1
1619049027.898071,-2,-1,-2,-1,-3,-2,0,-1
1619049027.900563,-3,-2,-1,-2,0,2,-1,1
1619049027.9024584,0,-2,-1,-2,-2,-5,-3,0
1619049027.9527514,-2,-2,0,-1,-1,-3,-2,-3
1619049027.9548843,1,0,1,-3,-3,-1,-1,-1
1619049027.9576123,-1,-2,-3,-1,1,1,0,-3
1619049027.9596202,-2,-1,-1,-1,-2,2,1,-1
1619049027.9735734,-1,-1,-3,-1,1,0,-1,-1
1619049027.9756596,-1,0,0,-1,1,2,-2,-1
1619049028.0342329,0,-2,-1,0,-2,-1,0,1
1619049028.0362294,0,1,0,-1,0,-2,0,0
1619049028.039775,-2,-1,-2,-1,0,1,1,-1
1619049028.0417356,0,-1,-1,-2,-1,0,0,1
1619049028.0644147,-1,0,1,2,1,2,2,-3
1619049028.0664492,-1,-3,-5,-5,-5,-1,-1,0
1619049028.072237,-2,0,4,2,0,-3,0,-1
1619049028.074287,-1,-3,-2,0,1,-1,-1,0
1619049028.095285,-1,-3,-3,-1,-4,-1,-3,-1
1619049028.0973055,-1,-1,-3,-2,-1,0,-2,0
1619049028.1000202,0,0,-2,-3,-1,-1,-2,3
1619049028.1020045,-1,0,0,-2,-1,-4,-2,-1
1619049028.1054678,-1,0,2,1,-3,-3,-5,-1
1619049028.1074338,-1,-2,-1,-1,-1,-2,-1,-1
1619049028.1102169,0,-1,-1,0,-3,0,0,-3
1619049028.112157,0,-1,0,1,-1,0,1,0
1619049028.124234,0,-1,-2,-2,-1,-1,0,-1
1619049028.1263735,-1,-2,-1,-1,-2,0,-1,0
1619049028.1288621,2,-4,-1,-2,-3,2,0,-1
1619049028.1307445,-1,-2,-2,-1,-2,-2,-1,0
1619049028.1399696,-3,-4,-4,-3,0,6,1,-2
1619049028.141733,0,0,0,-1,0,-3,-2,-1
1619049028.1550183,-2,-1,-2,-1,-1,0,0,-1
1619049028.1570122,0,-2,-4,-2,-4,5,3,1
1619049028.160243,-1,-2,-2,-2,0,0,0,0
1619049028.1620672,-3,-2,-2,-1,-2,0,1,1
1619049028.1645741,-2,0,1,1,1,-2,-1,0
1619049028.166469,-3,-4,-1,-2,1,1,1,-2
1619049028.1695986,0,-1,-3,0,-2,-2,-3,-2
1619049028.1714246,-1,0,-3,-3,-2,1,-1,-1
1619049028.1739671,-2,-1,0,-2,0,-4,-3,0
1619049028.1758018,0,-1,-1,-1,2,-1,-1,-2
1619049028.1823394,0,-1,0,-1,-2,-3,-1,-1
1619049028.1841915,0,0,2,1,-1,0,-2,-1
1619049028.1986809,-1,1,0,1,-2,-1,-4,1
1619049028.2005565,-1,0,-2,-3,-3,-2,-2,-2
1619049028.2158723,-1,0,-1,2,0,-4,-1,0
1619049028.2177014,-2,-1,-3,0,-2,-1,-1,-3
1619049028.2202246,-3,1,0,0,0,-1,1,-2
1619049028.222127,0,-2,0,1,-1,-2,-1,1
1619049028.2253213,-1,0,1,0,0,-3,-2,-1
1619049028.2272046,-1,-1,0,-1,1,-5,-2,-1
1619049028.250177,-2,0,-1,-4,-1,-1,-1,-2
1619049028.2520366,0,1,1,1,-1,-4,-1,-2
1619049028.282897,1,2,-1,0,0,-4,0,-2
1619049028.2850406,1,-1,0,0,-2,-1,-2,0
1619049028.2879093,-1,-2,-1,-1,-2,-3,-2,0
1619049028.2899656,-2,-1,0,0,-1,0,-2,0
1619049028.2934296,-2,-2,-1,-3,1,2,1,0
1619049028.295456,-2,-2,-1,-1,-3,0,1,0
1619049028.3098752,0,-1,-2,-1,2,-1,-2,-1
1619049028.3117607,-1,-1,0,0,1,0,-1,-1
1619049028.3735404,-3,-3,-2,-2,-2,1,0,1
1619049028.3756785,-1,0,-2,-4,-1,1,0,0
1619049028.3786278,-1,-1,0,2,0,-7,-2,-2
1619049028.3806348,-2,-2,-1,-1,-1,-1,-1,0
1619049028.3841274,-1,-2,1,2,-1,-1,-1,-2
1619049028.3861384,0,0,1,0,1,-1,0,-2
1619049028.3888903,0,-2,-5,-3,-1,1,1,-2
1619049028.3910122,-1,-1,-3,-5,-5,-5,-1,-1
1619049028.3936522,-1,0,-1,-1,-3,2,0,-1
1619049028.395454,-1,0,-2,-1,-1,-1,0,-1
1619049028.4016273,-2,-2,-1,-4,-1,3,0,0
1619049028.4035006,1,0,1,1,-1,-2,-2,1
1619049028.406726,-1,0,-1,0,-1,0,1,-1
1619049028.4086134,-1,-3,-2,-2,-1,0,0,0
1619049028.416718,-1,-2,0,3,0,-4,-3,0
1619049028.418632,-2,0,0,-2,-4,-1,1,-2
1619049028.421788,-2,0,-1,-4,-2,2,-2,-4
1619049028.4236636,-1,0,0,-1,-2,1,-2,-1
1619049028.4316757,-1,-1,-2,1,0,-2,1,-1
1619049028.433449,-1,-3,-1,-1,1,0,0,1
1619049028.4366312,-3,-2,-2,-2,2,-1,-1,-1
1619049028.43849,-2,0,0,-3,1,-2,0,-2
1619049028.4612186,-1,-1,0,2,0,0,0,-1
1619049028.463225,1,-1,-2,-1,1,-3,-2,-3
1619049028.466564,1,0,-1,0,0,1,-2,1
1619049028.4684153,-2,-1,1,0,-2,-3,0,1
1619049028.4769697,-1,0,-1,-4,0,-1,-3,-3
1619049028.4788654,-2,-2,-1,-4,-1,1,0,0
1619049028.4975803,-1,-2,-2,0,-1,-4,0,-2
1619049028.4994717,-1,0,-2,0,2,-4,-3,-3
1619049028.5058599,0,-1,0,1,-2,-1,3,0
1619049028.5077465,-1,0,-1,0,-1,-2,-3,0
1619049028.510947,-1,-2,0,-1,-3,-3,-7,-4
1619049028.5128088,0,1,-1,-1,-2,1,-2,-1
1619049028.5284681,-2,-3,-1,-1,0,-2,-3,-2
1619049028.5304,-1,-1,-1,1,-3,1,2,-1
1619049028.5663762,0,-3,-1,-2,-2,-2,2,0
1619049028.5683832,0,-2,-3,-4,-2,-3,0,-2
1619049028.6202579,0,0,0,-2,-1,0,3,2
1619049028.622421,-4,-1,-4,-3,-6,-3,-3,-3
1619049028.6260405,0,-1,-1,-4,-2,0,-2,-2
1619049028.6280444,-3,-1,1,15,11,2,-1,-1
1619049028.630768,0,-2,1,1,3,4,0,0
1619049028.6326966,-1,-3,-3,-4,-9,-5,-3,-2
1619049028.6506467,-1,-4,-12,-2,1,-1,-1,0
1619049028.6524968,1,7,25,15,1,0,-1,0
1619049028.6556933,-1,1,10,13,2,1,-1,1
1619049028.6574914,-3,-9,-23,-3,-1,-1,-3,-5
1619049028.6656914,6,3,0,-31,-20,0,3,2
1619049028.667559,-4,-7,-17,-20,19,11,0,-4
1619049028.6700797,-1,3,2,-9,-3,-7,1,-1
1619049028.6719341,-4,-6,-13,-10,-4,0,-1,-2
1619049028.6951883,5,12,29,49,25,6,1,3
1619049028.6971724,3,6,10,4,-18,-4,0,1
1619049028.6998782,-2,-2,2,13,7,6,1,-3
1619049028.7017894,-2,-1,-4,2,-23,-17,-1,-1
1619049028.705056,-2,-3,-10,-14,7,0,0,0
1619049028.7069468,-4,-7,-7,-12,-14,-3,-1,0
1619049028.7094545,-1,4,15,7,22,9,-3,1
1619049028.7112808,-4,-9,-37,-67,-42,-15,-1,-1
1619049028.714481,3,8,33,72,23,6,2,1
1619049028.716321,-4,-7,-18,7,24,6,2,-2
1619049028.7188592,2,1,-8,18,-5,2,1,-1
1619049028.7206929,1,9,46,11,0,3,-2,-1
1619049028.7239568,-6,-5,-9,-16,14,-1,-3,-2
1619049028.7257168,2,0,-7,-41,-20,3,2,2
1619049028.7391922,-2,-9,-23,-24,-21,-7,-2,-2
1619049028.7410176,0,-5,-33,-8,18,1,-1,-2
1619049028.7442238,-1,8,30,10,-15,-10,-7,-1
1619049028.746079,-1,2,10,29,-7,10,2,-1
1619049028.798653,-5,-10,-3,37,29,5,0,-2
1619049028.8006556,-1,0,-4,-36,-58,-25,-7,1
1619049028.8069074,-2,-9,-36,-67,-8,0,0,-2
1619049028.8089418,-5,-8,-5,37,35,0,-3,-5
1619049028.927096,-4,0,-1,-5,-31,-7,-3,-3
1619049028.9291055,2,4,13,0,33,26,8,3
1619049028.94246,-5,-4,-7,8,-10,-1,-5,-2
1619049028.9444332,6,8,11,29,5,-1,7,6
1619049028.9472163,37,-11,-28,-24,11,6,-1,-3
1619049028.949207,28,15,53,38,13,2,2,3
1619049028.95194,-29,4,16,-24,-19,-11,-6,-2
1619049028.9538822,-24,-22,-71,-24,3,-15,-8,-4
1619049028.9708455,-4,13,51,25,20,18,6,1
1619049028.9727576,-4,-7,-29,-20,-12,-9,-2,1
1619049028.975502,-2,-3,-9,-15,-82,-22,-6,-2
1619049028.9773142,-13,-16,-36,-71,-22,-19,-14,-11
1619049028.995375,15,21,61,124,96,57,17,5
1619049028.99736,-9,-14,-32,-84,-86,-44,-15,-6
1619049029.0005553,-2,-3,-4,34,29,-9,-2,2
1619049029.0024173,-1,-5,-37,-47,-18,-7,-2,1
1619049029.0048697,-6,-16,-49,-96,-25,10,-3,-1
1619049029.006814,12,24,87,109,67,12,7,3
1619049029.0170774,-11,-13,-24,-69,-43,-15,-13,-8
1619049029.018962,6,4,-4,-22,4,-7,2,2
1619049029.0214467,-5,-5,2,2,-26,-5,-5,-4
1619049029.0233746,0,-4,-33,-24,22,23,10,5
1619049029.0270329,-12,-16,-41,-104,-89,-24,-13,-6
1619049029.0289478,2,4,14,-7,-29,-9,-6,4
1619049029.032314,2,-5,-6,61,119,51,13,0
1619049029.0348465,-1,4,1,21,-39,-7,1,0
1619049029.0380495,5,5,20,76,74,4,5,1
1619049029.0401828,-1,-6,-26,-81,-49,-9,4,1
1619049029.0539699,6,6,14,127,106,71,17,2
1619049029.055754,-11,-9,-13,-36,-43,-8,-7,-7
1619049029.0585876,-2,-4,-10,-23,-10,-8,-4,-1
1619049029.0610461,-1,-5,-11,-5,3,8,3,0
1619049029.0652058,5,6,3,70,69,12,7,5
1619049029.067247,-12,-17,-26,-108,-84,-40,-17,-12
1619049029.0922027,8,17,59,49,4,-9,-1,2
1619049029.0942602,1,-2,-18,-4,-3,0,6,1
1619049029.097683,-2,-5,-14,-20,-1,-14,-4,-2
1619049029.0997014,-8,-5,-9,-59,-49,-22,-11,-3
1619049029.1024206,1,6,6,13,9,3,-2,2
1619049029.1043544,0,-4,-14,-46,-16,6,0,0
1619049029.1151562,2,14,76,87,70,57,10,-2
1619049029.1170642,0,2,-1,-27,-5,-9,-1,1
1619049029.1222372,-6,-20,-48,6,15,5,3,0
1619049029.1241224,-6,-15,-52,-76,-24,4,1,0
1619049029.1433122,16,40,107,87,-18,5,10,7
1619049029.1452808,-4,-7,-18,-16,-5,-3,-2,-3
1619049029.1479745,-3,-1,-4,-8,3,-7,1,-2
1619049029.149818,-2,-10,-27,-12,63,9,4,-2
1619049029.153041,-3,-1,11,-33,-93,-48,-13,-1
1619049029.1549118,6,11,16,41,17,9,1,4
1619049029.1575882,0,-3,-17,-24,-8,-1,2,-1
1619049029.1595664,7,17,43,60,-17,-2,1,1
1619049029.1748278,-8,-11,-37,-116,-99,-41,-9,-2
1619049029.1768074,-16,-35,-84,-53,-30,-9,-8,-10
1619049029.1794844,5,30,88,101,69,10,-4,-5
1619049029.1814413,-2,-2,-9,-37,-50,-12,0,4
1619049029.184648,0,1,-6,-32,2,1,-2,2
1619049029.186462,0,-10,-39,-29,-4,-3,37,-1
1619049029.204148,-3,-8,-20,-40,-28,5,12,1
1619049029.206155,-6,1,14,39,42,2,-13,-8
1619049029.2096596,3,11,28,68,57,4,-15,2
1619049029.2116435,-2,-9,-36,-19,9,-9,-22,0
1619049029.2141478,4,3,5,-27,-25,6,-3,1
1619049029.2159975,1,4,5,7,7,-9,-4,0
1619049029.2192092,-10,-21,-41,-35,-10,-1,-9,-6
1619049029.2210445,5,-1,-1,-7,15,15,9,3
1619049029.2402503,3,13,55,54,-18,-20,-1,1
1619049029.242394,-2,-4,0,9,4,21,6,-2
1619049029.2492254,-9,-10,-24,-23,-51,-27,-9,-8
1619049029.251146,1,7,29,-17,27,8,1,3
1619049029.2702653,1,-3,-8,42,44,2,0,1
1619049029.2722318,1,3,13,22,25,6,-2,0
1619049029.2811234,2,0,-4,-15,-20,13,12,4
1619049029.2831457,-2,-5,-20,-26,-9,-9,-8,1
1619049029.2856576,-4,0,0,12,13,-1,-5,1
1619049029.2874644,-3,-1,6,0,0,-8,-3,-4
1619049029.295066,1,-2,-22,-52,5,-10,2,-2
1619049029.2969232,2,7,33,36,0,10,0,-2
1619049029.2994215,-5,-12,-37,-50,-27,-3,-4,-3
1619049029.3012505,-5,2,21,28,-5,-7,-4,-5
1619049029.3044913,-7,-10,-24,-34,-21,-19,-9,-5
1619049029.306349,10,12,20,60,56,15,8,2
1619049029.3243527,4,6,27,18,-22,-13,-6,1
1619049029.326511,0,1,-4,22,44,18,2,-2
1619049029.3301568,-2,-1,-2,-16,-22,0,1,-1
1619049029.3320024,-6,-2,-4,-16,-23,-7,-5,-5
1619049029.3345165,-8,-10,-20,-5,-26,-16,-3,-5
1619049029.336354,-5,-4,-7,9,32,5,-2,-7
1619049029.3395731,-1,0,10,-3,-34,-24,-4,-3
1619049029.3414567,4,5,2,41,71,11,7,0
1619049029.3536067,-1,-6,-19,1,14,18,6,0
1619049029.3554583,-5,-10,-22,-40,-66,-40,-12,0
1619049029.367331,-7,-13,-32,-58,20,32,-3,-2
1619049029.3691893,9,19,58,48,-2,-4,0,6
1619049029.3912313,-7,-11,-29,-51,-13,-9,-7,-6
1619049029.3932009,3,5,8,29,37,10,5,3
1619049029.3995082,-1,-3,-12,-18,-60,-17,5,0
1619049029.4014797,-3,3,31,49,-8,-9,-10,-7
1619049029.4039967,2,-2,-6,-30,13,13,2,0
1619049029.405716,-1,-1,6,3,-46,-21,-2,0
1619049029.4090068,-1,-2,6,77,103,17,1,-1
1619049029.4108639,-6,-6,-17,-51,-32,3,3,-1
1619049029.428212,-1,0,-8,-34,-57,-39,-4,1
1619049029.4301472,-3,1,9,12,-42,-4,-3,-1
1619049029.4533827,3,-1,-16,-21,-23,-7,0,-4
1619049029.4553452,-5,-13,-23,-31,-48,3,-4,-4
1619049029.458164,-4,-9,-12,-10,40,20,-2,-7
1619049029.4600098,4,-3,-14,-4,10,3,7,1
1619049029.463253,-1,1,5,-5,-8,-5,-6,0
1619049029.4650686,-3,-7,-22,-28,23,9,2,4
1619049029.4825423,10,15,45,65,42,24,12,6
1619049029.484535,-7,-5,-3,-15,-37,-16,-11,-7
1619049029.4878948,-7,-17,-59,-49,18,4,3,-1
1619049029.4897354,12,39,93,97,-4,4,3,8
1619049029.4923024,-4,-16,-68,-58,35,18,0,-2
1619049029.494148,8,21,65,71,36,12,1,3
1619049029.497314,1,5,12,19,-1,-16,-2,2
1619049029.4991364,-4,-9,-28,-40,-4,-7,-6,-4
1619049029.501507,1,4,-4,-1,-39,-14,0,2
1619049029.503311,-8,-16,-26,-47,-50,-24,-6,-9
1619049029.5101686,-2,-5,-9,-7,-2,-1,-3,-5
1619049029.5120234,-2,-6,-4,-6,20,-1,1,-1
1619049029.5146232,-1,3,8,-32,-55,-11,-4,2
1619049029.5164585,1,-7,-34,-24,-7,-3,-2,1
1619049029.526071,-2,1,15,47,72,14,-5,-5
1619049029.5279338,-9,-13,-58,-55,-51,-20,-11,-7
1619049029.548786,4,13,53,43,75,-5,1,2
1619049029.5506897,1,3,4,-1,23,15,2,5
1619049029.5538766,-2,-6,-10,-24,-56,-10,-2,1
1619049029.5556867,10,19,55,67,14,13,11,5
1619049029.5582764,-9,-14,-37,-43,-64,-15,-5,-4
1619049029.5601175,7,16,42,47,5,9,4,1
1619049029.563365,3,8,25,-17,-20,-9,-5,1
1619049029.565157,-15,-26,-83,-92,14,5,-5,-5
1619049029.5700598,3,10,28,51,34,9,-1,1
1619049029.5719175,1,-4,-12,-20,-21,-3,1,0
1619049029.5792592,-3,-1,1,-19,-39,-6,-3,-3
1619049029.5810955,-4,-3,1,3,6,14,-2,-1
1619049029.6017494,-3,-8,-32,-8,-22,-7,2,-3
1619049029.6037617,-10,-16,-62,-90,-38,-3,-4,-4
1619049029.6072512,8,19,56,62,39,8,6,2
1619049029.6091309,-1,-3,6,14,4,-5,-3,-2
1619049029.6153672,-1,-5,-20,-14,-1,7,-1,0
1619049029.6171281,-5,-7,-20,-23,0,-6,-3,0
1619049029.6390016,-1,4,11,-4,-27,-25,-3,-4
1619049029.640948,5,11,38,25,25,11,3,1
1619049029.6442478,-2,-3,-16,-3,-33,-5,2,1
1619049029.6460872,-5,-14,-41,-18,6,1,-7,-6
1619049029.6486435,13,28,88,73,41,25,8,8
1619049029.6505127,0,1,-2,2,-15,-8,-5,-2
1619049029.6608388,-9,-16,-31,-46,8,18,1,-6
1619049029.6627607,3,8,27,59,52,9,1,1
1619049029.6679826,-9,-27,-82,-79,-28,-9,-6,-4
1619049029.6697857,13,24,82,78,7,-2,5,1
1619049029.6752615,-1,-3,9,-15,-4,5,2,-1
1619049029.6771276,0,1,-1,-21,-8,0,4,2
1619049029.6796813,1,-5,-26,-24,0,1,-1,0
1619049029.6815057,2,-1,1,13,-33,-12,3,5
1619049029.7084117,-11,-9,-4,1,23,1,-9,-9
1619049029.7105932,-4,-3,-12,-29,18,0,1,-1
1619049029.7133164,-4,-2,2,-18,-41,-17,-4,-3
1619049029.7153265,1,1,-11,-8,14,-7,-4,-1
1619049029.7302127,5,4,9,6,26,4,-1,2
1619049029.7322114,3,2,13,10,-29,13,-1,0
1619049029.7350142,-3,-8,-30,-37,14,12,1,-1
1619049029.736921,-6,-4,9,39,42,25,5,-3
1619049029.7676134,-1,-2,-46,-42,11,2,-2,-1
1619049029.7694688,2,9,37,26,-25,-6,-3,-1
1619049029.7721949,0,1,2,5,5,-4,-3,-1
1619049029.7740626,-6,-8,-23,-8,-18,-4,-5,-5
1619049029.777292,-1,-11,-46,-94,-31,-13,0,0
1619049029.7790103,3,8,42,78,28,0,2,1
1619049029.781314,-1,6,19,30,18,2,-1,2
1619049029.783017,-5,-7,-23,-21,2,-9,-6,-2
1619049029.7889361,2,8,32,17,-28,-19,-9,31
1619049029.7908251,1,-1,-17,35,52,0,7,34
1619049029.7962282,-7,-8,-9,-17,-20,-16,-6,-14
1619049029.79794,0,0,8,2,11,15,4,-16
1619049029.8009639,-4,-9,-21,-40,-55,-10,3,-34
1619049029.8026752,7,13,38,48,10,-9,2,-18
1619049029.80498,2,1,-8,-6,3,0,0,1
1619049029.806801,-4,-7,-16,-33,-18,-6,-7,-16
1619049029.8191087,-7,-18,-55,-39,-25,1,-5,-5
1619049029.8208137,0,6,30,12,34,8,-2,0
1619049029.8231988,-1,0,-1,11,13,1,-1,2
1619049029.8249884,1,-2,-19,-9,-6,1,5,10
1619049029.8325617,-3,1,18,2,-41,-31,-4,1
1619049029.8343222,-2,-5,-9,-5,17,8,0,-4
1619049029.8366544,2,0,1,4,23,7,4,-4
1619049029.8383448,-1,-5,-8,16,11,1,-2,7
1619049029.8554347,3,10,37,33,36,15,11,3
1619049029.8573682,4,2,-4,-12,-61,-7,7,-5
1619049029.859895,-9,-8,-9,-43,-25,6,-10,-2
1619049029.8615792,-1,-8,-29,-45,-25,-13,-1,7
1619049029.887111,6,23,83,79,8,-7,-8,1
1619049029.8889904,-3,-7,-27,-34,-16,-9,-1,-3
1619049029.891484,2,4,16,52,65,32,11,2
1619049029.8931587,-7,-7,-11,-11,-27,-36,-12,-5
1619049029.896186,-3,-10,-43,-84,-20,6,1,-3
1619049029.8978622,0,1,8,29,1,5,0,2
1619049029.9082177,-2,1,-3,32,1,-6,-7,1
1619049029.9099803,-3,-6,-19,-78,-20,6,-2,-4
1619049029.9151907,1,3,21,94,64,11,0,-1
1619049029.9169002,-8,-17,-51,-83,-49,-14,-11,-8
1619049029.9229136,-3,-13,-37,-37,-42,-23,0,-2
1619049029.9247525,3,10,36,24,36,16,10,4
1619049029.945106,-3,-3,3,4,-19,-4,3,1
1619049029.9470475,-1,-11,-31,6,96,42,11,-2
1619049029.9532897,3,14,62,49,-60,-13,-4,1
1619049029.9550335,11,8,11,63,75,7,13,7
1619049029.9751368,-3,-2,3,-3,21,24,-5,-1
1619049029.9772055,0,-1,-14,-37,-7,-10,-8,-3
1619049029.9838805,6,7,15,26,45,15,7,3
1619049029.9855936,-4,-3,-11,-16,0,-19,-12,-1
1619049030.0085356,3,3,6,46,18,-2,0,0
1619049030.0105517,-5,-1,11,20,-23,-7,-8,-6
1619049030.0130877,-6,-18,-62,-79,15,-16,-4,-1
1619049030.0149527,9,28,93,97,30,32,8,3
1619049030.0182502,-7,-11,-33,-56,-37,-20,-5,1
1619049030.0200517,3,6,10,26,25,11,1,2
1619049030.022397,-3,0,14,33,22,14,5,-3
1619049030.0241895,-4,-12,-22,20,43,9,3,-7
1619049030.027225,-4,-7,-21,-46,-32,-9,-3,-5
1619049030.028905,4,13,40,57,10,6,4,4
1619049030.0367723,2,-1,-4,3,-2,-3,-1,1
1619049030.038629,-5,-11,-45,-77,-74,-16,-3,-1
1619049030.042139,3,16,68,107,19,-7,-5,-2
1619049030.0440013,-7,-12,-24,-46,-20,-15,-3,-2
1619049030.0466547,-1,-2,-1,1,30,10,1,0
1619049030.0484204,-8,-10,-29,-12,-23,-10,-4,-3
1619049030.0659418,1,0,-5,-17,0,9,-1,-2
1619049030.0678408,-1,-5,-9,-25,-16,-2,6,-1
1619049030.0703611,-1,0,2,23,12,-4,-4,-1
1619049030.072216,0,-5,-23,-23,33,18,2,0
1619049030.07553,8,15,29,31,-5,-14,2,4
1619049030.0774043,-1,-1,1,-3,4,-7,-7,-3
1619049030.0803974,4,4,5,-8,21,29,9,7
1619049030.0823662,-5,3,26,5,-46,-13,-11,-3
1619049030.0966146,4,0,-7,-29,-46,-16,2,3
1619049030.0985658,-9,-9,-28,-51,-40,-33,-13,-6
1619049030.101045,1,8,31,55,-35,-26,-5,-3
1619049030.102921,-1,-7,-19,-40,11,-5,-3,-3
1619049030.126446,0,1,11,21,16,11,1,-4
1619049030.1284585,-3,-7,-28,-28,-13,-1,-1,0
1619049030.131178,-7,-11,-24,-46,-65,-25,-10,-8
1619049030.133087,0,3,13,35,-1,-8,-4,1
1619049030.136355,3,-1,-5,-4,10,25,9,3
1619049030.138168,-1,-5,-6,0,-23,-15,-2,-1
1619049030.140752,0,6,27,35,23,17,0,-3
1619049030.1426344,-2,1,2,-28,-37,-10,-7,1
1619049030.1557717,-2,-3,-14,-19,16,12,0,-3
1619049030.1577377,1,4,14,52,55,22,6,0
1619049030.16235,1,2,-8,-63,-48,-25,-2,2
1619049030.1641824,0,-2,-3,-4,-13,-3,2,-2
1619049030.1952727,-8,-16,-32,-48,9,9,-5,-5
1619049030.197287,12,32,88,87,24,2,3,6
1619049030.2000563,-5,-8,-16,9,21,4,-1,-3
1619049030.2020516,-3,-6,-12,-8,6,0,1,-4
1619049030.2055209,0,0,-1,3,11,-3,0,0
1619049030.2073941,1,-1,1,-33,-20,-8,-6,2
1619049030.2099097,0,-5,-18,-18,-11,-4,-3,1
1619049030.21171,0,5,19,39,13,5,0,0
1619049030.2247152,-1,1,-8,-2,-4,-3,4,2
1619049030.2266011,-4,-7,-9,-16,-26,-6,0,-5
1619049030.2291052,-3,-3,-11,-16,-14,-2,1,0
1619049030.2310011,-4,-5,-8,-7,6,11,1,0
1619049030.2857878,0,0,5,23,2,0,-3,-1
1619049030.2877676,-3,-3,-10,-32,-9,-10,-6,-2
1619049030.2906005,-1,-1,8,18,2,0,-1,-2
1619049030.2926345,1,0,8,11,-3,-5,3,0
1619049030.312929,2,1,-1,3,-1,-9,-2,1
1619049030.3150067,-1,-6,-14,-18,-15,6,2,1
1619049030.3299458,-1,4,14,3,-22,-4,-7,-3
1619049030.3319938,1,3,4,-3,-1,-9,-7,-2
1619049030.3354797,-1,0,9,-13,-9,-8,-4,-3
1619049030.33745,-4,-4,-10,1,-4,0,-2,-3
1619049030.3433785,1,-1,0,-5,-2,0,-5,-2
1619049030.345232,-2,-2,-6,-11,-6,-6,-3,0
1619049030.3586595,1,2,-3,13,7,-1,1,0
1619049030.3606544,0,-2,-14,-21,0,9,6,2
1619049030.3754184,-2,0,4,18,16,1,-3,-4
1619049030.3774555,1,3,9,11,3,0,-1,2
1619049030.3802507,-1,-5,-10,-16,-5,-3,-2,1
1619049030.3820984,0,-1,0,-3,7,-10,-1,-2
1619049030.3845959,1,0,7,3,0,0,7,-1
1619049030.3864715,-4,-7,-17,-17,-2,2,1,-4
1619049030.3896594,-3,0,3,9,5,-1,-3,-3
1619049030.3915281,-3,-2,1,0,-5,5,0,-2
1619049030.3940837,0,3,-2,-2,0,-4,-4,5
1619049030.395957,3,1,-5,-8,-16,-2,3,2
1619049030.3991184,-1,-2,-3,-13,-6,-1,-1,0
1619049030.4008944,-2,-3,-2,-2,2,-3,-3,-1
1619049030.4053786,1,2,7,9,5,-6,-1,1
1619049030.4073937,-2,-2,-5,-1,9,4,2,-1
1619049030.409881,-3,-5,-3,-4,-8,-7,-2,-1
1619049030.4116957,1,0,4,4,5,5,-2,0
1619049030.4186602,-2,-3,-5,-8,-10,2,0,-3
1619049030.4205422,-1,1,2,6,2,-2,-3,-2
1619049030.4230816,3,0,-4,-4,-3,-7,0,-1
1619049030.4249094,-2,-1,1,7,0,-2,4,0
1619049030.4501667,-2,-2,-5,-6,-5,-5,-2,-2
1619049030.4529893,-3,-1,-2,-4,-4,2,-4,-1
1619049030.4563804,0,1,1,2,3,1,0,-2
1619049030.459271,-1,-3,-6,-17,-1,8,4,-1
1619049030.4654524,-1,0,-26,-2,-6,1,0,0
1619049030.4673243,-1,-2,-8,1,3,1,-1,-3
1619049030.4698591,-5,-4,-5,-7,-5,-3,-2,0
1619049030.4717271,-2,-2,14,3,2,8,-3,0
1619049030.477824,-1,-4,11,-9,-3,9,1,-1
1619049030.4802444,-2,-3,4,-3,-1,0,-2,-2
1619049030.4830043,2,1,6,-4,1,0,0,1
1619049030.484806,0,0,4,11,4,-7,-3,-2
1619049030.5031455,-2,0,4,-3,-3,-2,-1,0
1619049030.5051,-1,0,-1,-3,0,-4,0,-4
1619049030.5080857,1,-2,-3,-4,-1,0,0,0
1619049030.5102756,0,0,-5,-5,-5,-7,-2,-2
1619049030.5636559,-1,-3,-2,5,1,-2,2,-2
1619049030.5656543,-2,1,4,4,0,-1,0,-2
1619049030.5683475,0,-1,-5,-3,-2,1,-1,-3
1619049030.5703344,1,1,1,1,0,-1,-5,3
1619049030.592594,-2,-3,-2,-2,0,-9,-5,1
1619049030.5947192,2,-2,-1,-3,0,5,1,0
1619049030.5975592,-1,-1,-4,-2,-2,2,2,0
1619049030.59953,-3,2,-5,0,-3,-1,1,-1
1619049030.6029954,-3,0,0,-4,-3,0,-1,-2
1619049030.6049755,-1,1,2,0,-4,-1,-1,-2
1619049030.6078365,-1,-2,-3,-2,-1,2,0,-1
1619049030.609821,0,-1,-5,-7,-3,5,2,0
1619049030.6129546,-3,0,-4,-7,-4,2,1,3
1619049030.6147728,-1,-2,-2,0,3,-1,-2,0
1619049030.617292,-2,-3,-3,-1,-1,-2,-2,-2
1619049030.619164,0,-1,-3,-3,0,-3,-1,-1
1619049030.6223238,1,0,1,1,-2,-2,-2,1
1619049030.6242614,1,0,2,2,-3,0,-1,3
1619049030.6366553,-2,-2,-1,-2,-2,0,-4,2
1619049030.6385634,0,1,-1,3,2,-2,-4,-1
1619049030.641774,0,1,-1,-2,-2,-1,-3,-3
1619049030.6436036,-1,0,-1,-2,0,-1,-2,-1
1619049030.651304,0,1,0,2,-2,-3,0,-2
1619049030.6531584,0,1,-2,3,3,-6,1,0
1619049030.6670604,0,-3,-1,-5,2,0,-3,-3
1619049030.6689315,-2,-4,-5,-5,-6,5,0,-1
1619049030.6714535,1,-1,1,0,0,3,-3,1
1619049030.6733236,0,1,2,0,-2,2,1,1
1619049030.6827824,-2,0,1,-1,-2,0,2,-2
1619049030.6846228,-2,-3,-3,-1,1,1,4,-2
1619049030.6871412,1,-2,-2,-2,0,0,2,-3
1619049030.689,2,0,-2,-1,-3,2,-3,-2
1619049030.7128851,2,2,2,3,0,-4,-3,3
1619049030.7147884,0,2,0,1,-2,-1,0,-2
1619049030.717264,-1,0,-2,-2,-1,-1,1,-1
1619049030.7190645,0,-2,1,1,0,0,2,-1
1619049030.7425694,-1,-4,-4,-2,-2,-1,2,0
1619049030.7446456,0,-2,-1,3,1,3,6,0
1619049030.747464,0,0,0,1,0,-3,1,-2
1619049030.749485,-1,-1,1,-3,-1,-1,-4,-2
1619049030.7529705,1,-4,-2,-6,0,4,0,-1
1619049030.7548585,-1,-2,0,1,-1,0,-1,-1
1619049030.7573705,-1,-1,-4,0,-5,0,-3,1
1619049030.7592812,-1,-2,-2,-3,-3,0,-3,-1
1619049030.771635,1,-1,-2,1,-1,0,1,-4
1619049030.773556,-3,-3,0,-1,0,-5,-1,-1
1619049030.7760897,-1,-2,2,1,-3,-4,-2,0
1619049030.7779472,0,2,0,2,2,-4,-2,0
1619049030.870255,-1,1,-2,-1,-2,-3,-3,-1
1619049030.8722353,1,0,-3,-5,-3,-4,0,1
1619049030.8750725,1,0,-2,-2,1,-3,-1,-1
1619049030.8770459,-2,-2,-5,-6,1,5,1,-1
1619049030.8802712,-1,-1,0,-2,-4,0,-2,0
1619049030.8821442,1,2,6,7,4,-2,-3,3
1619049030.88464,-3,-2,-3,1,0,1,-2,-3
1619049030.886424,0,-2,0,5,0,-6,1,-1
1619049030.8895442,-3,-2,2,0,2,-4,1,0
1619049030.8914459,0,-4,-2,-3,-2,-5,-2,-4
1619049030.8987546,-2,-1,-1,-1,1,-4,-3,-1
1619049030.9006045,-1,1,0,0,2,-3,-2,0
1619049030.9661283,-4,-3,-2,-1,-2,0,2,2
1619049030.9681227,1,-2,-2,-3,-3,-5,-3,-2
1619049030.9894178,-1,-2,-3,-1,-7,0,1,-1
1619049030.9915652,-2,-2,-1,-1,-1,1,-1,-4
1619049030.994476,0,-1,-4,-2,-3,-1,2,-4
1619049030.9964797,0,-1,-2,1,-1,3,-1,0
1619049031.0212042,-1,-2,-4,-2,-2,4,2,-1
1619049031.0232337,1,0,-2,-2,-3,-2,0,1
1619049031.0260365,-1,-3,0,0,-3,-3,-3,2
1619049031.0279894,0,-1,-2,-2,-1,0,3,2
1619049031.0335557,-3,-1,-1,1,0,-1,1,0
1619049031.0354176,0,1,0,2,4,1,0,-2
1619049031.0481148,0,-2,-7,-5,-1,2,0,-3
1619049031.0501115,-1,0,-1,-2,0,-1,-1,-1
1619049031.0561225,0,2,-3,-4,-5,1,0,0
1619049031.0581307,0,-2,-1,-2,-3,4,-1,0
1619049031.1469908,-1,-2,-2,-3,-2,-1,1,1
1619049031.148981,-1,-2,1,-1,1,-3,-2,-1
1619049031.1524687,0,-1,-2,-2,0,-2,1,0
1619049031.154497,-1,0,0,-2,0,-1,0,-2
1619049031.1629372,-2,0,-1,2,-2,3,1,-2
1619049031.164952,-2,-1,-2,0,-2,0,0,0
1619049031.1684163,1,-3,-3,-3,-1,-3,-2,-1
1619049031.1704006,0,-2,1,1,-1,-3,-3,-1
1619049031.176551,1,1,1,1,3,1,-3,-1
1619049031.178595,-1,-1,0,2,-1,-2,-1,-1
1619049031.1925852,0,-1,-3,-3,-1,0,-3,-1
1619049031.1946225,-1,0,0,-2,-4,1,-4,-3
1619049031.1977823,0,0,0,3,-3,-6,-2,-1
1619049031.1995866,1,1,5,6,6,-7,-4,0
1619049031.2065523,-2,0,-3,-3,-2,-3,3,-1
1619049031.2084396,0,-1,-3,-2,-4,1,-2,2
1619049031.2222838,-1,-1,4,4,0,-1,-1,-1
1619049031.2242608,0,-3,0,-1,-1,3,-3,-1
1619049031.2270098,-2,-2,0,-3,-2,0,0,-1
1619049031.2288418,0,-2,1,2,-1,-3,3,1
1619049031.2439125,-1,-2,-1,-2,-1,0,-1,-1
1619049031.245898,-4,-1,-3,0,-2,2,2,-4
1619049031.2525976,-2,-2,-1,-1,-1,1,-3,0
1619049031.2546244,-2,-3,1,2,2,-3,-2,-2
1619049031.2658343,-3,-5,-4,-4,0,-1,2,0
1619049031.267703,0,-1,-2,-3,-1,-1,0,0
1619049031.304551,-2,0,1,-1,-3,-4,-3,1
1619049031.3067052,-2,0,3,-3,0,-1,-1,1
1619049031.3931146,0,-1,-2,-4,1,4,3,-1
1619049031.3951752,-1,2,2,2,2,-3,-1,1
1619049031.422744,-2,-1,-5,-4,0,0,0,-1
1619049031.4248278,0,1,-4,1,-1,2,0,-2
1619049031.441054,-1,-3,-3,-4,-2,0,-2,-1
1619049031.4430838,0,-1,-3,-3,-2,4,-1,-2
1619049031.4457824,0,-2,-1,0,-3,0,1,0
1619049031.4478054,-1,0,2,1,2,-6,-5,-3
1619049031.4506814,-3,1,-2,-1,-2,-1,2,-1
1619049031.4528525,-2,-3,-1,0,-4,0,-3,0
1619049031.4556572,0,-1,-3,-1,-3,2,0,1
1619049031.457676,-2,-2,-2,-7,-1,1,3,1
1619049031.4606152,1,-3,-2,-2,-2,-2,0,0
1619049031.462471,1,0,0,-3,0,-5,-1,1
1619049031.4698846,-1,1,0,0,0,0,-4,-2
1619049031.4717002,-1,0,-4,0,0,0,-1,-2
1619049031.474984,-3,-2,1,-3,0,2,-1,-2
1619049031.4768126,-2,-2,0,0,-2,-2,-2,-1
1619049031.498674,0,0,-2,2,3,1,-3,0
1619049031.5006542,2,0,-1,1,2,-4,-1,0
1619049031.516169,0,-1,0,-2,0,-2,0,2
1619049031.5181339,-2,-1,2,1,-2,0,-1,1
1619049031.520844,0,0,-2,-3,-1,-2,0,-2
1619049031.522878,-3,-1,-4,-3,-3,2,4,0
1619049031.544942,0,-1,1,1,-1,-1,0,-3
1619049031.547012,0,0,0,-3,0,-1,-3,-1
1619049031.5496166,1,-1,-2,-1,0,1,1,-2
1619049031.5514154,0,-1,-2,-4,-2,1,1,-1
1619049031.554623,-2,0,-4,-1,-3,1,1,0
1619049031.5564516,-1,-3,-1,0,-1,0,-1,-1
1619049031.5595684,0,1,1,-2,-2,-1,-4,0
1619049031.5613213,0,-4,0,1,-3,0,-5,0
1619049031.6051168,-2,-2,-4,-5,0,0,-2,1
1619049031.6072745,-1,-2,1,2,0,-2,-1,-2
1619049031.6101236,-2,-1,-1,-1,-1,1,-2,-1
1619049031.6120956,-1,-1,-3,-2,1,-2,-3,-2
1619049031.670949,-1,0,-1,1,0,-3,-2,0
1619049031.6729822,-1,-1,-1,-3,0,1,-3,-1
1619049031.701752,-2,-2,1,3,-3,-3,1,-2
1619049031.703776,-4,-2,-3,-6,-4,0,2,0
1619049031.717504,-3,-3,1,4,0,-1,2,-3
1619049031.719534,1,0,0,-1,2,-2,-2,-4
1619049031.722972,0,2,1,-1,-1,0,1,0
1619049031.7250042,-1,-1,1,0,0,1,0,-1
1619049031.72752,-2,-1,-2,-2,-2,0,2,1
1619049031.7293296,-1,-1,0,1,-1,-1,-1,-1
1619049031.731816,-1,0,-1,0,2,-5,-2,2
1619049031.7335813,-2,-1,0,4,2,-2,-1,0
1619049031.7359803,2,0,-1,0,0,-2,0,-2
1619049031.7377539,2,-1,-1,-1,1,-3,-2,0
1619049031.740251,1,-2,1,0,0,-5,-5,-1
1619049031.7421556,0,-1,0,-2,-2,-2,0,-1
1619049031.7629113,-1,0,-2,-1,-1,-1,1,-1
1619049031.7648728,-4,-1,0,-2,-5,-1,-1,-1
1619049031.775385,-2,0,-3,-1,-2,0,1,0
1619049031.7773666,-2,-1,0,0,-1,-2,0,-2
1619049031.8233938,-1,0,0,0,1,0,-2,-2
1619049031.8254964,0,-2,-4,-3,-1,-2,1,-1
1619049031.828317,1,-1,2,1,1,-2,-1,-1
1619049031.8302722,0,-1,0,-1,-1,-3,-1,-3
1619049031.8368182,-1,-4,-3,-3,-2,1,3,1
1619049031.8388278,-4,-1,-3,-2,-2,0,0,0
1619049031.8415565,-1,1,-2,-1,3,-1,-3,1
1619049031.8435097,-3,-3,0,-3,0,2,0,0
1619049031.8523679,0,-3,-4,6,10,-2,-1,-3
1619049031.8543413,4,9,15,5,1,5,2,1
1619049031.856983,2,-1,-1,8,9,2,1,0
1619049031.858988,-2,-2,-3,-1,-2,0,1,-1
1619049031.868256,0,-1,0,-11,-18,-1,1,-3
1619049031.87012,0,3,12,8,2,-1,-1,-1
1619049031.9502184,-2,-1,-3,-12,4,1,-1,1
1619049031.9522362,1,-2,-3,-2,-6,1,-4,0
1619049031.9549463,0,-1,-1,6,4,4,1,3
1619049031.9569805,-2,-6,-14,-25,-22,-8,-3,-1
1619049031.9604263,0,-1,3,17,6,-6,-2,-4
1619049031.9624515,0,1,7,0,15,5,0,1
1619049031.9777248,-2,2,5,7,2,-2,-2,0
1619049031.9797342,-1,1,6,12,6,-5,-3,-1
1619049032.0230057,-1,-3,-14,-10,-15,-1,1,0
1619049032.0251403,2,2,4,5,-8,-7,-4,-3
1619049032.039376,-2,-1,6,-4,-22,-13,-4,-2
1619049032.0414126,-2,-1,-5,13,10,3,0,-1
1619049032.0553062,0,3,6,13,14,9,1,-1
1619049032.0575318,-7,-9,-33,-39,-6,1,-2,-2
1619049032.0603182,1,-1,-4,-9,1,-1,3,-1
1619049032.062338,4,6,27,11,3,-5,3,0
1619049032.0685544,-5,-1,5,30,9,-3,-5,1
1619049032.0704598,-2,-5,-18,-48,-8,-4,-1,0
1619049032.0729237,5,2,9,37,42,18,7,1
1619049032.0747669,-6,-5,-12,-57,-59,-22,-10,-2
1619049032.1662383,-6,-5,-16,-49,-13,-12,-8,-4
1619049032.1682296,-2,-7,-19,-30,-19,-7,-2,-3
1619049032.1977675,2,4,18,-2,-20,-7,1,0
1619049032.199776,0,1,6,54,60,8,0,-2
1619049032.2025077,2,0,-5,-6,12,10,4,2
1619049032.2045188,-7,-10,-18,-43,-8,5,-5,-4
1619049032.2285864,0,14,48,94,25,-9,-9,-1
1619049032.2305787,-5,-5,-17,-50,-23,1,3,0
1619049032.2332861,-5,-13,-35,-30,-8,1,0,-1
1619049032.2352746,12,21,27,17,21,20,15,8
1619049032.237986,5,22,80,91,1,-8,-3,-1
1619049032.2398438,-5,-17,-60,-29,19,10,2,-2
1619049032.2578027,-4,-9,-26,-6,-71,-34,-11,-2
1619049032.259666,-2,4,22,80,84,10,-4,-5
1619049032.2650878,1,-4,-12,32,69,66,15,1
1619049032.2671626,0,-2,9,66,27,13,5,0
1619049032.270854,2,11,29,-9,11,-1,1,2
1619049032.2734313,-2,-10,-42,-76,-34,-7,-7,0
1619049032.2772093,3,2,17,38,19,-18,1,3
1619049032.279337,0,7,26,9,-30,-16,-7,-3
1619049032.2828026,1,2,8,-10,-24,-3,2,-1
1619049032.2847154,-2,0,5,64,16,2,-4,-4
1619049032.28734,3,6,17,6,4,6,4,3
1619049032.2892542,-3,8,39,-10,-23,-28,-15,-5
1619049032.2927268,2,-11,-36,10,51,7,6,0
1619049032.294836,-6,-3,10,-33,-40,-19,-8,-4
1619049032.3009934,-6,-14,-43,1,21,7,1,-5
1619049032.3030293,-1,0,2,-18,-32,-17,-2,1
1619049032.306325,-3,-9,-29,-31,-3,2,1,2
1619049032.3083456,5,6,20,52,44,7,5,3
1619049032.3478098,-8,-13,-47,-79,-26,-12,-14,-9
1619049032.3498137,2,2,4,18,15,10,5,3
1619049032.3533046,-3,-4,-21,-44,-11,4,-3,-2
1619049032.3552763,-17,-40,-111,-92,41,11,-3,-9
1619049032.358002,28,59,120,83,10,-4,10,12
1619049032.360332,-8,-19,-59,-82,-42,-1,-4,-4
1619049032.3638124,10,25,53,29,12,0,1,5
1619049032.365662,-12,-23,-53,-56,-24,9,-6,-9
1619049032.3762302,-6,1,36,16,-46,-32,-13,-8
1619049032.378238,-3,5,35,59,64,39,13,6
1619049032.3816035,-1,-8,-10,-21,-67,-22,-9,-4
1619049032.3834686,2,-7,-26,-60,-33,-6,3,0
1619049032.3859837,-5,-7,5,22,-12,-23,-6,-3
1619049032.3878334,0,-2,-16,-22,-12,2,-3,-3
1619049032.3911183,-4,-2,8,18,8,4,-2,-4
1619049032.3929718,3,-4,-16,-34,24,17,9,3
1619049032.4059696,0,11,51,35,32,15,-1,-4
1619049032.4078896,-2,-6,-13,-6,-15,-5,-1,-2
1619049032.4111483,3,4,3,34,-27,-22,-4,4
1619049032.412996,-7,-10,-35,-49,-7,9,-1,-2
1619049032.4209752,7,15,51,72,14,-2,6,6
1619049032.422879,-5,-9,-17,52,34,7,-3,-7
1619049032.4261389,-11,-9,-9,-78,-30,6,-5,-5
1619049032.4279852,14,26,67,125,29,4,8,7
1619049032.4426186,-11,-14,-12,-26,6,-8,-12,-7
1619049032.4446945,-3,-10,-39,-69,-20,-1,-2,-1
1619049032.4513144,7,8,10,8,19,17,11,2
1619049032.453127,1,9,38,32,7,-26,-9,-4
1619049032.5050893,-10,-23,-78,-97,-7,-3,-2,-7
1619049032.507124,4,2,-1,-34,-2,8,6,4
1619049032.510674,-1,2,13,50,67,11,-2,-3
1619049032.5126572,-7,-13,-35,-78,-27,-7,-4,-2
1619049032.5153718,18,46,109,120,26,1,5,8
1619049032.5173435,-5,-13,-48,-85,23,10,3,-4
1619049032.520528,-1,-3,-16,-13,-39,-5,-1,1
1619049032.522356,-3,-1,17,6,17,5,-1,-3
1619049032.5340528,-7,-24,-78,-94,-13,-1,1,1
1619049032.5359035,-5,-11,-37,-11,-11,3,3,0
1619049032.5384486,-6,-27,-94,-90,-30,2,7,1
1619049032.5403821,11,18,33,44,14,-13,-1,2
1619049032.5436742,0,-1,13,-18,-9,-6,-3,-2
1619049032.5454302,4,5,7,51,84,19,7,0
1619049032.5479121,-13,-19,-28,37,5,-10,-12,-10
1619049032.549718,7,22,65,68,-5,3,0,7
1619049032.55287,-2,-20,-69,-44,22,11,7,0
1619049032.554751,5,18,45,62,15,16,5,3
1619049032.5634763,-4,-18,-61,-35,29,28,8,2
1619049032.5653195,2,9,54,80,1,-11,-7,0
1619049032.5685318,-5,-13,-61,-29,40,22,5,2
1619049032.5704293,-2,-2,-7,1,19,-13,-6,-4
1619049032.586913,-4,-15,-47,-91,-50,-14,-1,-1
1619049032.588793,6,19,64,87,15,-3,1,1
1619049032.592081,-12,-21,-59,-96,-48,-19,-15,-8
1619049032.5938876,6,-1,-14,18,-5,-15,1,5
1619049032.60078,13,34,110,107,-19,-8,3,7
1619049032.6027045,-9,-13,-32,-51,-39,-11,-9,-5
1619049032.6073096,4,-2,3,36,76,26,9,4
1619049032.6092095,-5,0,15,22,-63,-28,-14,-7
1619049032.624369,0,-3,-17,-59,-24,6,4,2
1619049032.6264825,3,10,37,16,8,0,0,2
1619049032.6297302,5,18,65,127,34,8,0,3
1619049032.6315331,-6,-7,-21,-36,-40,-6,-6,-2
1619049032.653737,-5,-14,-40,-49,27,6,1,-3
1619049032.6557062,4,16,47,20,27,7,2,1
1619049032.6590097,-7,-14,-38,-59,-17,-9,-9,-4
1619049032.660849,7,-2,-18,-39,17,0,8,5
1619049032.6695807,0,7,51,44,-48,-5,-8,-5
1619049032.6714902,-7,-21,-73,-96,7,2,-2,-2
1619049032.6747825,4,11,12,29,-34,-15,-5,-1
1619049032.676637,-7,-8,-12,-23,-24,3,-3,-4
1619049032.683476,1,9,32,85,78,16,7,3
1619049032.6853106,-10,-27,-95,-94,-38,-14,-7,-5
1619049032.6885371,7,14,38,46,0,-2,4,3
1619049032.6905565,-8,-6,22,53,25,-3,-8,-8
1619049032.7058613,3,8,38,60,6,6,-2,2
1619049032.7076774,-2,-6,0,24,23,5,-1,-2
1619049032.7133596,2,-1,-24,9,-26,-6,1,2
1619049032.71524,-5,-3,4,1,5,3,-5,-6
1619049032.7203357,-4,-1,-8,-61,-15,-11,-5,-2
1619049032.722205,3,9,31,21,1,-3,1,0
1619049032.7536519,-3,-6,-12,-19,-8,-10,1,1
1619049032.755672,-6,-17,-62,-43,-18,4,0,-1
1619049032.7584724,12,14,35,13,22,21,10,5
1619049032.7605689,-4,-17,-56,-57,-34,-8,-1,-3
1619049032.766032,2,7,14,-35,15,15,3,-1
1619049032.7680216,-4,-8,-32,-58,-4,-14,-6,-3
1619049032.774402,2,4,-11,34,-4,-11,-1,2
1619049032.776315,1,-1,-10,-41,13,34,10,0
1619049032.7827349,-11,-18,-18,2,-18,-20,-12,-7
1619049032.784583,11,18,41,33,10,3,7,6
1619049032.7870882,-5,-10,-29,-23,-18,-4,-2,-4
1619049032.7888777,2,8,29,45,28,9,4,2
1619049032.7921214,-4,-11,-39,-75,-76,-41,-7,-5
1619049032.793928,-6,-3,-6,-2,38,0,-9,-5
1619049032.811263,-10,-24,-85,-85,0,-15,-6,-5
1619049032.8133447,-2,-10,-46,-21,17,2,-2,-3
1619049032.816873,2,12,44,31,-21,-1,0,1
1619049032.8188906,0,-2,-10,-47,31,17,4,1
1619049032.8253005,-5,-10,-6,16,-22,-10,-7,-3
1619049032.82725,-11,-19,-49,-82,-52,-29,-10,-8
1619049032.8429143,5,18,68,98,58,19,6,2
1619049032.8448994,-5,-15,-40,-41,-14,-7,-2,-5
1619049032.8475761,9,23,69,83,27,-5,1,3
1619049032.8498034,7,15,54,79,25,6,1,2
1619049032.85459,6,9,7,-14,-3,-22,-4,2
1619049032.8564472,-7,-1,14,-23,-18,4,-4,-4
1619049032.8712642,6,6,-3,66,9,1,0,1
1619049032.8731463,0,2,-1,16,12,-4,2,2
1619049032.8763947,-3,-15,-41,-49,24,13,5,-2
1619049032.8782773,5,14,33,49,0,1,3,4
1619049032.8860621,-16,-27,-70,-102,-41,-14,-8,-9
1619049032.8879259,5,11,24,12,7,-3,-2,2
1619049032.8911064,-8,-23,-76,-46,-1,15,-3,-7
1619049032.892945,0,-2,-25,-18,-14,6,4,0
1619049032.9005723,-2,-5,-8,-61,9,7,0,0
1619049032.9024856,-1,0,9,16,-4,-3,-1,0
1619049032.9074466,7,28,92,93,12,5,5,3
1619049032.9093845,-3,-2,-2,28,-4,-3,2,1
1619049032.9318297,-2,-7,-27,-77,-21,-3,-1,0
1619049032.933822,5,12,52,51,-7,-5,-2,0
1619049032.9372337,-7,-13,-37,-39,-7,6,-3,-1
1619049032.9390705,6,7,17,12,-18,-8,0,1
1619049032.9467716,1,4,7,14,6,4,1,-1
1619049032.9486208,-5,-10,-23,-48,-17,-11,-4,-2
1619049032.9689677,-6,-15,-39,-41,11,6,3,-2
1619049032.9708433,8,30,87,111,36,4,7,5
1619049032.9733899,-12,-15,-22,-33,-19,-4,-8,-5
1619049032.9753573,0,3,8,21,-23,6,-3,-1
1619049032.9785378,5,11,36,42,-10,-22,-7,-3
1619049032.9802957,-3,-7,-6,12,-10,-10,-1,-2
1619049032.9842985,7,7,6,35,-24,-16,2,1
1619049032.986149,-5,-3,-2,-14,14,6,-4,-4
1619049032.989365,-1,2,11,16,6,-5,-4,-1
1619049032.9913394,-3,-17,-60,-79,2,7,1,0
1619049033.0071063,5,20,69,49,-42,-23,-2,2
1619049033.0089407,3,13,45,41,4,3,4,2
1619049033.0121946,1,-6,-40,-42,41,20,6,2
1619049033.0140355,4,11,34,41,-4,2,3,3
1619049033.028466,-6,-14,-30,-12,17,1,-3,-6
1619049033.0304346,-3,-10,-37,-55,-8,2,2,-1
1619049033.0336456,-5,-4,-2,-38,-40,-14,-7,-4
1619049033.0355065,-4,-21,-73,-90,-23,-8,-1,0
1619049033.0445952,10,24,43,26,47,24,8,4
1619049033.0465338,5,15,51,61,42,5,3,2
1619049033.0497038,-4,-8,-37,-36,-9,-22,-9,-4
1619049033.0515552,-7,-11,3,28,21,1,-9,-6
1619049033.0804026,-4,-9,-28,-30,-13,2,3,-2
1619049033.0824049,-9,-20,-64,-101,-38,-29,-8,-5
1619049033.0905395,1,4,4,8,25,21,0,-3
1619049033.0924165,11,24,70,49,12,4,6,7
1619049033.094947,-3,1,13,65,-4,4,-3,-4
1619049033.0967762,-5,-7,-12,6,13,-8,-5,-4
1619049033.1043563,-6,-12,-30,-57,-35,-3,1,0
1619049033.1062012,6,12,36,36,-2,3,-2,0
1619049033.1086686,1,3,7,6,9,-5,-2,-1
1619049033.1105332,0,-5,-19,0,-11,-1,-2,-3
1619049033.1136892,1,-1,20,39,54,28,11,5
1619049033.1155436,0,1,-15,-45,-44,-14,-8,-3
1619049033.1258812,0,-3,-6,-30,-7,5,3,0
1619049033.1277196,-3,-15,-55,-8,-38,-4,1,-1
1619049033.1309426,10,16,44,58,41,24,8,6
1619049033.1328018,-4,-2,18,30,-26,-16,-4,-5
1619049033.1486998,-5,-10,-11,-16,39,18,0,-1
1619049033.1505933,9,24,56,37,10,7,6,5
1619049033.1536763,2,5,3,-1,-1,-3,0,-2
1619049033.1555023,-1,-10,-25,-5,2,0,-1,1
1619049033.1643498,-1,-4,-5,-18,-16,-1,0,-2
1619049033.1663027,1,-3,-7,-19,-35,-17,-7,-2
1619049033.1694582,3,10,37,41,16,2,2,1
1619049033.1712859,5,3,1,-1,17,11,8,2
1619049033.1862042,-7,-6,-10,-3,-12,-16,-10,-7
1619049033.1880805,-7,-22,-69,-92,6,1,-4,-1
1619049033.191414,1,11,35,45,-6,-5,-4,-4
1619049033.193319,-13,-25,-65,-105,-34,-9,-7,-7
1619049033.200335,11,24,79,81,33,13,6,7
1619049033.2021692,-9,-15,-25,-44,-11,6,-1,-6
1619049033.2084596,-2,1,5,19,-47,-20,-9,-3
1619049033.2103746,-6,-4,-6,-32,15,-2,0,-2
1619049033.2244148,-6,-16,-50,-66,-26,-2,2,-1
1619049033.2263296,5,15,35,46,27,2,0,3
1619049033.2295105,-10,-26,-66,-96,-27,-11,-6,-5
1619049033.2313428,9,22,78,101,12,12,6,5
1619049033.2468884,8,22,61,88,22,2,0,2
1619049033.2487302,-5,-5,-8,-17,-15,-3,-2,-2
1619049033.2519922,-5,-12,-53,-59,-7,-6,-1,-4
1619049033.2537324,9,9,9,14,27,10,5,3
1619049033.2600307,-6,-12,-35,-62,-31,-8,-4,-1
1619049033.2618196,2,1,6,-15,6,5,2,1
1619049033.2682168,1,7,24,12,13,0,0,1
1619049033.2700138,-1,4,12,43,7,-8,-2,0
1619049033.2833462,-2,-9,-31,-27,-2,-10,-3,-2
1619049033.2850654,-3,-1,-6,15,-3,-15,-4,-6
1619049033.2881565,-3,0,21,23,11,0,2,-2
1619049033.2898905,1,9,34,22,-30,0,-3,-1
1619049033.3057733,-4,-21,-70,-28,-22,-4,-1,-5
1619049033.3075225,-1,1,8,29,24,3,-1,-2
1619049033.3132672,1,-3,-17,-42,-2,-2,-3,1
1619049033.3150153,3,4,17,29,17,5,3,0
1619049033.3195233,-21,-42,-114,-128,-35,-17,-11,-10
1619049033.3212414,13,29,65,62,11,4,2,5
1619049033.3281386,-1,-2,10,25,-4,3,4,-1
1619049033.3298318,1,-9,-41,-52,2,-2,-1,0
1619049033.3438427,-4,1,24,-26,-11,6,1,-4
1619049033.3455625,4,16,61,95,28,12,7,2
1619049033.3569987,-3,-1,2,-11,-20,-3,-3,-2
1619049033.358862,-5,-8,-38,-50,-14,-15,-5,-3
1619049033.3661218,0,-6,-16,-50,13,3,6,1
1619049033.3678427,10,33,102,107,16,-3,1,6
1619049033.370901,-6,-13,-28,-49,-9,6,0,-4
1619049033.3726187,0,1,11,37,17,-4,-5,-1
1619049033.379716,6,11,12,29,37,9,3,3
1619049033.3814383,-11,-23,-74,-122,-11,6,-1,-3
1619049033.3886852,4,6,11,19,0,-4,-1,1
1619049033.3904386,-6,-10,-14,-16,-1,-2,-1,-2
1619049033.4032927,-1,9,25,27,9,-2,-1,-1
1619049033.4050145,-4,-21,-77,-63,-27,-19,-5,-4
1619049033.4171484,4,10,31,9,20,13,4,3
1619049033.4188797,-7,-15,-44,-95,-64,-4,-2,-3
1619049033.425963,1,4,23,91,24,-11,-7,-4
1619049033.4277003,-10,-27,-71,-57,28,6,-3,-7
1619049033.4307442,0,2,10,15,13,-1,0,0
1619049033.4324267,-2,3,12,18,-15,-2,-1,-2
1619049033.4398024,-7,-12,-39,-97,-48,-10,-3,-2
1619049033.4417045,9,23,88,108,17,-7,-4,0
1619049033.4563107,-3,-4,-6,5,-5,-9,-7,-1
1619049033.4582448,-6,-11,-35,-72,-14,-1,-2,-2
1619049033.464096,3,6,16,32,10,1,0,-1
1619049033.4657981,-6,-17,-48,-68,-21,1,2,0
1619049033.4688225,4,7,26,8,-24,-2,3,0
1619049033.4705257,-3,-8,-14,-16,11,-14,-6,-4
1619049033.485642,2,10,15,50,1,15,-1,1
1619049033.487389,-10,-20,-64,-111,-58,-14,-8,-6
1619049033.4920812,-1,1,2,32,12,-2,-2,0
1619049033.4937797,1,1,0,56,50,14,3,-3
1619049033.5083535,-2,-2,0,-41,-18,-7,-4,-1
1619049033.5101755,-2,-7,-31,-29,-18,11,2,1
1619049033.5135696,-4,1,11,10,-9,-7,-2,-3
1619049033.5154293,-8,-18,-64,-85,-31,-4,-4,-3
1619049033.5315938,0,5,35,71,56,7,1,-1
1619049033.5333161,2,8,14,19,-28,-7,-2,1
1619049033.5467582,-4,-10,-36,-38,-3,-1,-8,-4
1619049033.5484672,-1,0,-11,-26,-5,-14,-7,-3
1619049033.5508428,6,9,33,15,-24,-6,2,5
1619049033.5525284,-9,-22,-49,-87,-20,-3,-1,-3
1619049033.5555615,12,26,41,31,32,19,6,2
1619049033.5572643,0,6,12,6,0,3,2,1
1619049033.5689478,-5,-6,-25,-44,-7,-4,-3,-3
1619049033.570695,-3,-1,20,4,14,-1,-2,0
1619049033.5737503,4,1,15,36,1,-6,-2,2
1619049033.5755706,-5,-15,-39,-48,-16,0,-3,0
1619049033.5829582,15,38,103,112,-15,-19,-1,5
1619049033.5846806,-3,-3,-1,1,52,23,5,-2
1619049033.5895462,-8,-12,-28,-26,-49,-18,-5,-5
1619049033.591364,-6,-15,-54,-63,-21,-5,-3,-4
1619049033.606102,8,15,46,67,6,8,0,2
1619049033.6078732,1,3,9,-3,5,-10,-2,-2
1619049033.6132076,-8,-15,-47,-87,-1,-3,-3,-2
1619049033.6149476,7,17,61,99,11,2,-2,2
1619049033.636574,-7,-15,-46,-70,-6,-4,-3,-3
1619049033.6383257,3,7,15,45,7,-4,0,2
1619049033.6433458,-3,-4,-4,11,9,4,1,-2
1619049033.6450467,1,7,28,-32,-37,-10,-3,-1
1619049033.6473892,0,-5,-15,13,31,11,2,-1
1619049033.6490698,7,13,37,78,30,18,8,7
1619049033.6567965,-4,-10,-29,-43,-21,-8,-4,0
1619049033.6586263,-1,-4,-23,17,24,4,3,-3
1619049033.666116,2,9,30,55,15,0,0,1
1619049033.6678505,-6,-13,-22,-54,1,4,2,-3
1619049033.6708858,3,10,11,19,-6,3,2,2
1619049033.6726198,-1,3,12,36,16,4,1,0
1619049033.6885898,-4,-13,-34,-53,-9,-1,1,0
1619049033.6903546,-5,-10,-21,-33,-32,-26,-8,-7
1619049033.6937058,12,20,54,67,2,-2,5,7
1619049033.6954143,-3,-1,8,36,30,-10,-5,-1
1619049033.7029474,-3,-4,-17,-27,-32,-10,-3,-3
1619049033.7047,1,5,14,5,-2,-5,-2,-1
1619049033.7094738,0,-7,-17,-22,11,8,1,-2
1619049033.7111962,1,2,10,9,0,3,3,1
1619049033.7260327,1,-6,-20,-8,-3,0,-1,-3
1619049033.727765,-1,7,10,-21,-9,-5,-4,-2
1619049033.7308197,-3,-2,-10,-3,-4,-3,-1,0
1619049033.7325053,3,8,26,27,1,1,2,1
1619049033.749377,-8,-14,-35,-46,-2,1,-1,-4
1619049033.7512677,-1,0,2,20,-5,2,-1,-4
1619049033.7542963,1,-6,-13,-5,4,-4,0,1
1619049033.7560081,-2,-3,-4,-43,-1,-3,-3,-2
1619049033.7634504,-1,0,5,-14,-13,2,2,2
1619049033.7651596,3,8,15,31,3,2,-1,3
1619049033.7691808,-4,-4,-3,14,29,6,1,-3
1619049033.7708974,-3,-9,-27,22,6,4,3,-1
1619049033.7863472,6,15,33,16,7,6,3,2
1619049033.788067,-2,-5,-9,12,-5,-11,-7,-2
1619049033.7920327,0,-3,-5,-4,-5,-2,-3,-2
1619049033.7937267,-2,0,5,5,4,1,-5,-4
1619049033.808906,-3,-6,-17,-34,-13,-9,-3,-2
1619049033.810643,3,0,5,30,2,4,2,1
1619049033.8235023,-3,-5,-15,-47,-14,2,2,-1
1619049033.825307,0,3,14,4,1,6,1,-1
1619049033.8277102,-3,-3,-1,12,7,4,0,-2
1619049033.8293874,1,1,7,11,3,2,0,-1
1619049033.832426,-5,-5,-9,-4,0,-2,-1,-2
1619049033.8341281,1,3,11,-2,-8,-2,-2,0
1619049033.846538,0,-5,-15,-9,6,3,0,0
1619049033.8482482,-5,-3,-3,2,1,4,-1,-4
1619049033.8533783,-2,2,6,3,-5,-5,-4,0
1619049033.8550987,0,0,-2,-3,7,4,3,0
1619049033.8926165,-3,-4,-4,-9,-11,1,1,-2
1619049033.8946803,1,-2,-4,-10,4,3,2,1
1619049033.8981404,-2,-4,-6,-11,-9,-2,-1,-2
1619049033.899968,-1,0,6,10,1,1,0,-1
1619049033.9023075,-4,-5,-8,-12,4,0,-3,-2
1619049033.9039884,1,1,7,6,-4,-2,-2,-1
1619049033.921422,-2,-3,-5,1,7,4,1,-1
1619049033.9231637,2,1,2,-6,-8,-3,-1,3
1619049033.9383402,-2,0,3,20,1,0,-1,-1
1619049033.940292,0,1,2,0,24,10,2,0
1619049033.9818645,-3,-3,-9,-44,-45,-13,-4,-2
1619049033.9838614,0,-2,-4,8,16,10,2,-2
1619049033.9865873,-2,-3,-2,-2,-2,0,0,0
1619049033.9885454,1,2,5,1,-26,-6,1,1
1619049034.0129097,-3,-1,-2,17,27,0,-3,-3
1619049034.0149765,-3,0,1,-2,-5,-5,0,-2
1619049034.0176334,-3,-3,-4,-2,-4,-5,-2,-2
1619049034.0196195,-1,0,1,-3,1,-5,-2,-1
1619049034.023073,0,0,-2,1,1,4,-2,-2
1619049034.0249667,0,-3,-5,-14,-15,-7,-3,-2
1619049034.0278597,0,-1,-3,-10,-2,-2,1,4
1619049034.02978,2,-1,-1,-4,-4,13,4,-3
1619049034.0329993,-2,-2,-1,-9,-4,-3,-2,-2
1619049034.0348294,-1,-3,-2,-2,-5,-3,-3,-1
1619049034.0373294,1,0,-1,2,0,-5,-1,-1
1619049034.0391757,-2,-2,-1,-8,-4,-4,0,0
1619049034.0424984,-1,-2,-1,14,10,6,3,0
1619049034.0443661,-1,1,0,-10,-9,-4,-2,-2
1619049034.0482085,-1,-2,-4,-10,-4,0,-2,1
1619049034.050051,-2,-2,-2,2,0,-1,-2,-1
1619049034.0532618,0,-2,1,2,0,-2,0,0
1619049034.0551076,-1,-1,2,-3,-4,-2,-4,-1
1619049034.079446,0,-1,0,6,1,-1,-1,-2
1619049034.0814526,0,2,2,0,0,-5,-3,0
1619049034.0849133,-1,-2,-3,-3,-4,3,1,-1
1619049034.086829,-1,-1,0,2,1,-2,0,0
1619049034.100278,1,0,-3,-5,-2,-9,-5,-2
1619049034.1021452,-1,0,0,4,2,-6,-1,-2
1619049034.1412234,0,1,-2,-5,0,-3,-2,1
1619049034.1433687,0,0,1,1,2,-3,-1,-2
1619049034.1462295,-2,-2,-3,-3,-2,2,-1,-1
1619049034.14817,-1,-2,-2,0,0,2,0,0
1619049034.1686313,-1,0,3,4,1,-6,-3,1
1619049034.1706429,-1,-7,-4,-7,-5,8,2,0
1619049034.1987157,1,-3,2,3,2,0,-3,-1
1619049034.2007625,-1,-2,-2,-2,-4,0,-1,-1
1619049034.2161717,-2,-1,-6,-6,-2,1,3,-3
1619049034.2181733,-1,0,-2,-3,-3,-4,-2,-2
1619049034.2375348,0,-2,-3,-3,-3,5,1,-4
1619049034.239596,-1,1,0,4,1,-5,-2,-1
1619049034.2422915,-1,0,0,-3,0,-2,0,1
1619049034.2442648,-2,-1,-2,-1,1,0,0,1
1619049034.2591162,-3,0,-1,-2,0,3,1,1
1619049034.261112,0,0,-1,0,0,2,0,0
1619049034.2637885,-2,0,-1,-2,-2,0,0,0
1619049034.2657154,-2,-4,-3,-2,-2,9,2,-1
1619049034.2682111,0,-1,2,2,-1,-2,-2,-2
1619049034.2700353,-1,-1,-1,-1,-1,0,0,-1
1619049034.2750576,1,0,1,0,-2,-2,2,-2
1619049034.2769544,-1,-4,0,-1,-2,0,0,-1
1619049034.2795277,-2,0,-2,-2,-3,-3,-1,-1
1619049034.2813814,2,1,2,0,0,-1,-1,0
1619049034.2877607,-1,-2,-2,-2,-2,0,-1,-3
1619049034.289592,-3,-1,-4,-1,-3,3,2,-1
1619049034.304936,-1,0,1,0,0,-4,-4,-2
1619049034.3068259,1,-1,-1,0,-1,-4,-2,1
1619049034.3192844,-3,-1,-1,0,-1,-2,-1,-1
1619049034.3211632,0,1,1,-1,-2,-3,-2,0
1619049034.335282,1,-2,-2,-4,-1,0,0,-1
1619049034.337264,-1,-1,-1,-3,-1,-2,0,-2
1619049034.3406014,-3,1,0,-1,0,-2,0,-1
1619049034.3425684,-1,-1,0,-4,-2,-3,-1,-2
1619049034.3451772,-1,-2,-4,-3,0,-1,1,0
1619049034.3470237,-1,0,-1,0,0,-3,0,1
1619049034.3943367,1,-1,0,0,-1,-7,-2,-2
1619049034.3963668,-2,-2,-4,-3,0,1,-2,-1
1619049034.399278,-1,-1,0,2,-2,-3,-1,-2
1619049034.4012723,-3,-4,-1,-3,-2,-1,-2,1
1619049034.4180548,3,0,-1,1,0,0,0,-2
1619049034.4200008,0,-1,-2,1,0,-3,-1,0
1619049034.422676,-2,-1,-4,-3,-2,2,1,-1
1619049034.4247065,-2,-1,-2,0,0,2,-2,-3
1619049034.428327,-1,-2,-3,-3,0,3,1,-1
1619049034.4303315,0,1,1,2,-1,1,0,0
1619049034.4474816,-2,-4,-1,-5,-7,-5,-3,-1
1619049034.4494543,0,2,-2,0,0,-4,-2,1
1619049034.452893,-2,1,-1,1,3,-2,-3,0
1619049034.4548805,2,-2,0,-1,-3,-3,-3,-1
1619049034.4581368,-3,-2,-1,-4,-3,0,1,0
1619049034.4601512,-1,-2,-3,-6,-2,3,1,-2
1619049034.4923995,-3,-1,1,5,0,-1,-2,-2
1619049034.495261,-1,-2,1,1,-1,1,-1,-1
1619049034.4990463,-1,-1,-4,-5,-1,0,1,1
1619049034.5011923,0,2,-1,-1,4,-9,-5,-1
1619049034.520331,1,-2,0,4,2,-1,-1,-2
1619049034.522503,-2,-2,-1,0,-1,0,-2,-1
1619049034.537434,1,-1,-2,0,0,-3,-3,-3
1619049034.539567,0,-2,-2,-3,-4,3,1,-2
1619049034.544529,-1,-1,0,-3,-3,5,1,-1
1619049034.5466843,-5,-2,-3,-5,0,3,3,0
1619049034.5531101,0,-1,1,-3,-2,-6,-4,-2
1619049034.5551782,0,-1,-1,-1,0,0,0,0
1619049034.5580633,1,-2,0,0,1,-1,-2,-2
1619049034.5611799,1,1,-1,0,-2,-1,-2,0
1619049034.5671055,-1,0,1,3,3,0,-1,0
1619049034.5698907,-2,0,1,-1,-5,-1,-2,0
1619049034.5922513,-1,-3,-5,-2,0,2,0,0
1619049034.595165,0,0,-1,-1,-1,1,0,0
1619049034.5992472,0,-1,-5,-4,0,-1,1,-2
1619049034.6018114,0,1,2,2,0,0,0,-4
1619049034.612298,0,-1,0,0,-2,-1,-1,-2
1619049034.6165416,0,-1,-2,-2,-2,-3,-2,1
1619049034.6285522,-1,-1,-2,-1,-2,-1,-2,-1
1619049034.6314602,-2,-2,-2,-1,1,1,-1,-1
1619049034.6714878,-4,-3,-6,-6,-3,5,-1,-1
1619049034.6734746,-1,-1,1,0,-1,-2,0,-1
1619049034.6938896,0,0,0,0,0,-1,0,0
1619049034.6969383,-3,-1,-2,-1,-1,0,1,-1
1619049034.7256951,-1,1,0,-3,-4,1,-1,0
1619049034.7280414,-2,-1,-3,-4,-2,-4,-2,-2
1619049034.7312646,1,0,1,0,-2,4,1,1
1619049034.73354,-1,-2,-1,-3,-2,-5,-3,-1
1619049034.736313,-1,0,0,-1,1,-3,-3,0
1619049034.7383327,0,-1,-2,0,-1,0,-3,-3
1619049034.7547598,-1,0,-1,-1,-2,0,1,0
1619049034.756796,0,-1,0,-2,-1,-3,-1,1
1619049034.7607024,0,1,-2,-2,0,1,-2,-2
1619049034.7632685,1,1,-4,-1,1,1,-1,-1
1619049034.7670789,-1,0,1,2,-1,-5,-2,-2
1619049034.7689695,-1,-1,0,1,1,-3,-1,-1
1619049034.771551,-4,-3,-1,-2,-1,-3,-3,-1
1619049034.7734542,-1,0,0,0,-2,4,-1,1
1619049034.7789037,0,0,-2,-2,-2,-4,-2,0
1619049034.7813778,-1,-1,-1,1,2,-3,-3,-1
1619049034.7844439,0,0,0,0,-3,0,-1,0
1619049034.7861938,1,0,3,4,3,-5,0,-1
1619049034.8202698,-2,-3,-1,-1,0,-1,-1,-3
1619049034.8223345,-2,-4,-3,-2,-2,-2,-1,-2
1619049034.8531742,2,0,2,0,2,1,-1,-2
1619049034.855308,0,1,1,-1,-2,-3,-2,-1
1619049034.8583834,0,0,-4,-1,1,1,0,-1
1619049034.860651,-1,-1,-3,-3,-4,1,0,1
1619049034.8657715,-1,-3,1,0,-2,0,1,1
1619049034.867798,0,0,-1,0,-2,-3,-1,1
1619049034.8705096,-1,0,-1,-3,-2,-1,0,-3
1619049034.8724275,3,2,0,2,0,-6,-1,1
1619049034.8754387,0,-2,-2,-1,-1,-3,0,0
1619049034.877462,-3,-1,-2,-1,-1,-1,0,-2
1619049034.8900156,-1,-1,-2,-3,-2,-1,0,0
1619049034.8923094,-1,-1,1,0,-1,-1,-2,-2
1619049034.896772,-3,-1,0,1,-2,-3,-2,-1
1619049034.8994093,-2,-1,-3,0,0,-2,-1,0
1619049034.9021873,-2,0,2,-1,-1,-3,-2,-2
1619049034.9041612,-4,-4,-1,-1,-2,1,0,-2
1619049034.9123383,-1,-2,-1,0,2,0,-1,1
1619049034.9151344,0,1,1,1,0,-5,-2,0
1619049034.9180791,0,0,-1,-1,0,0,2,0
1619049034.9200277,0,-2,-2,-2,0,0,-1,0
1619049034.9234788,1,0,0,-2,0,-1,-2,-3
1619049034.9264963,-2,-2,-2,-3,-2,4,1,-1
1619049034.9335077,-1,-1,-1,0,-1,-1,0,-2
1619049034.9354146,0,1,1,0,-3,-3,-1,-2
1619049034.9724565,-1,-2,-4,-2,-2,-2,0,2
1619049034.974498,1,-2,-4,-4,-4,-1,-2,-2
1619049034.9789321,-3,-2,-1,1,0,-2,-2,1
1619049034.9816315,0,-3,-4,0,-1,-2,0,0
1619049034.9858723,-1,-1,0,1,-4,-3,0,-1
1619049034.9879792,-1,-2,1,0,-3,-2,0,1
1619049034.9910026,-2,0,-2,-5,-3,-2,-1,2
1619049034.993767,-1,-1,0,-1,3,-2,-2,-2
1619049035.0014164,0,0,-1,-3,0,0,0,0
1619049035.0031874,1,0,1,0,2,-3,-3,0
1619049035.0058079,1,-1,2,2,0,-2,0,-2
1619049035.0076678,-2,-2,-2,-1,0,0,0,1
1619049035.0481646,-1,1,1,-2,-1,-1,0,-1
1619049035.0502574,-2,-1,-1,-1,-2,-2,-1,0
1619049035.0530193,-2,-4,-3,-1,-1,-1,2,0
1619049035.0550416,0,-1,-4,1,-3,-2,0,0
1619049035.061225,0,-4,-1,1,-1,0,0,0
1619049035.0638607,-2,0,-1,-2,1,0,-1,0
1619049035.067801,-2,-2,2,1,0,-4,-4,0
1619049035.0698,-1,-1,-1,-3,-2,0,1,0
1619049035.0790973,-1,-3,-4,-3,-1,2,0,-2
1619049035.0814567,-3,-2,-2,-3,-1,2,1,0
1619049035.0859895,-1,-1,-5,-2,-3,-2,-1,-1
1619049035.0877607,-1,0,2,0,-1,0,2,0
1619049035.092282,-1,2,1,0,-1,-2,-1,-2
1619049035.094946,-2,-3,0,-1,-1,0,-1,-2
1619049035.0990992,-1,-2,-2,0,-1,0,0,-1
1619049035.101584,-2,-4,-4,0,0,1,1,-1
1619049035.1042864,1,0,0,-1,-3,-1,-3,0
1619049035.1060898,-1,-1,-2,0,0,1,-2,-2
1619049035.1097288,-1,1,1,1,-2,-1,-1,1
1619049035.1122122,-1,-1,-1,0,-3,-2,1,-1
1619049035.1159837,-2,-2,0,-1,-1,-1,-2,-1
1619049035.1186597,0,-1,0,0,0,-1,-1,2
1619049035.1219273,-1,-1,1,0,-2,-2,-1,-1
1619049035.1238663,-1,-2,-1,-2,-1,-2,-2,-3
1619049035.1526165,2,-2,-3,0,1,0,-1,0
1619049035.1546998,-1,-1,-1,-2,-1,-1,1,-1
1619049035.158353,0,2,2,0,1,0,-3,-2
1619049035.1611273,0,-1,-2,-1,1,1,2,0
1619049035.1652575,-2,-3,0,1,0,0,0,-1
1619049035.1673276,-3,-2,-2,-1,0,-3,-1,0
1619049035.170816,0,0,2,1,1,0,-1,-1
1619049035.1726358,-1,0,-3,-2,-2,0,-1,-2
1619049035.182059,4,1,3,4,0,-1,-2,1
1619049035.1841233,-1,-2,1,1,-1,-2,-2,-2
1619049035.1876624,-1,-1,-2,-1,-2,4,1,0
1619049035.1895285,-2,-1,2,2,0,-1,-3,0
1619049035.1975398,-3,-2,-3,-4,0,0,-1,-1
1619049035.1998382,0,0,-3,-3,-3,2,1,-1
1619049035.219229,-3,-4,-5,-5,-1,3,0,0
1619049035.2210412,0,-1,-3,-1,-2,1,1,-2
1619049035.223692,-4,-1,0,0,1,0,-2,-2
1619049035.2261312,1,-1,1,-2,-1,-1,-2,1
1619049035.2306583,-1,-1,0,-1,-2,-3,0,-1
1619049035.2328622,-1,0,-3,-1,1,1,-1,0
1619049035.2802496,0,-2,-2,2,-2,-1,0,-1
1619049035.2825055,-2,0,-2,-2,-2,-1,-1,-2
1619049035.2861612,0,0,1,1,-3,-1,-2,-2
1619049035.288144,-2,0,0,-1,-2,-1,-1,-3
1619049035.290931,-1,1,2,2,-3,-2,-1,-3
1619049035.2930503,-1,-1,-1,-2,-3,-1,-4,-2
1619049035.3110347,0,0,-1,-2,0,-1,-3,0
1619049035.3137016,-1,0,1,3,-1,-5,-3,-1
1619049035.3169315,-1,-3,-3,-4,-1,-1,0,1
1619049035.3189774,-1,-1,-1,0,1,-3,-1,-1
1619049035.321606,-2,-1,1,2,0,-1,0,-3
1619049035.3236237,-2,-2,-2,-5,-1,-2,-2,0
1619049035.3278322,-1,-1,-2,-1,-1,-2,1,-1
1619049035.3304946,-1,-3,-1,-2,-2,-1,1,0
1619049035.3336542,1,-3,-3,-4,-2,0,2,-1
1619049035.3356595,-2,-3,0,-1,-2,-1,0,0
1619049035.3388712,0,1,1,1,-1,-6,-2,0
1619049035.340619,-2,-1,-3,-2,-1,-1,-2,-2
1619049035.3547072,-2,-2,-1,-1,-1,-3,-2,0
1619049035.356784,-1,1,0,-1,1,-3,1,-2
1619049035.3598125,-1,-3,-3,-5,-2,0,0,-1
1619049035.3623266,0,1,0,2,0,3,-1,-1
1619049035.3664691,1,-2,0,0,-1,0,-2,-2
1619049035.3684092,0,-2,2,-1,-1,-3,-3,1
1619049035.3710237,-2,-4,-3,-3,-5,-1,0,0
1619049035.3729026,0,2,2,4,2,-1,1,-1
1619049035.3766806,-1,0,-1,2,0,-1,1,-2
1619049035.3788526,0,-2,-4,-2,-1,0,1,-1
1619049035.406876,-3,-1,0,2,-2,3,-1,-2
1619049035.4088862,1,-2,-3,-2,-3,-2,0,-2
1619049035.414453,-2,-2,-3,-8,-3,-2,-2,2
1619049035.4164283,0,1,-1,-1,-2,-2,-2,0
1619049035.4191015,-2,0,0,7,3,-1,-2,-1
1619049035.4209607,1,1,1,6,13,8,4,1
1619049035.424329,-3,-5,-6,-10,-14,-6,-3,-3
1619049035.4263027,-1,-3,-8,-14,-10,-1,1,-1
1619049035.429623,1,-1,-9,4,-3,-9,-5,-1
1619049035.4314334,1,9,30,14,5,-1,-1,1
1619049035.4347105,0,1,1,0,2,0,1,1
1619049035.4365528,-3,-8,-27,-24,-8,0,-3,-2
1619049035.4587576,5,17,60,39,5,3,-2,1
1619049035.4607887,-3,-4,-8,5,4,-3,-3,-2
1619049035.464152,0,-2,0,-2,6,0,0,-2
1619049035.4659846,-2,-2,-5,-6,-5,2,0,-2
1619049035.474775,-7,-21,-71,-52,-12,3,1,-2
1619049035.476633,8,26,87,60,14,-3,1,0
1619049035.4889295,-2,-7,-23,-18,-3,2,1,0
1619049035.4908147,6,20,65,46,23,0,1,4
1619049035.493336,-4,-6,-15,-31,-33,-6,-1,0
1619049035.4951992,-7,-12,-35,-41,-29,-13,-3,0
1619049035.5023787,-6,-17,-57,-25,17,10,-1,-4
1619049035.5042386,7,29,78,57,29,10,4,4
1619049035.526859,-2,-1,22,22,-12,-8,-3,-3
1619049035.5287397,-5,-12,-33,-55,-29,-11,-5,-4
1619049035.5877972,5,10,30,38,35,3,2,3
1619049035.5898051,-6,-19,-53,-24,-9,-9,-1,-4
1619049035.5926204,0,11,51,37,18,-6,-3,-2
1619049035.5947177,-3,-8,-18,3,-15,-8,-3,0
1619049035.5981932,-1,-7,-20,-19,-12,-8,-3,-2
1619049035.600255,5,5,14,-5,6,9,5,2
1619049035.6030586,-5,-7,-19,-38,-7,1,-3,-3
1619049035.6048968,1,0,10,40,12,1,0,0
1619049035.6081192,4,7,13,0,-5,1,3,1
1619049035.6098235,0,-5,-12,0,4,7,1,0
1619049035.646139,-3,-8,-31,27,17,7,2,0
1619049035.6481586,1,3,-7,-44,-11,12,3,1
1619049035.7070525,-5,-14,-26,-22,-33,-18,-2,-2
1619049035.709025,-6,-19,-46,-21,-3,23,4,-7
1619049035.711929,0,15,63,69,14,-18,-12,-5
1619049035.7140338,-5,-4,-9,-18,-15,0,-1,1
1619049035.7175,2,7,18,3,23,8,6,3
1619049035.7194462,0,-6,-24,-12,-46,-7,-1,-1
1619049035.7221894,0,-15,-71,-45,45,6,4,1
1619049035.7241423,10,36,103,119,20,-2,-1,2
1619049035.726797,4,10,27,49,17,-2,2,1
1619049035.7288032,-4,-19,-60,-78,-13,11,1,-4
1619049035.73205,-5,-16,-38,-63,5,4,1,0
1619049035.734132,-1,-6,-10,-36,-38,-17,-1,-1
1619049035.7369275,2,7,9,-47,-59,5,8,7
1619049035.7390766,-12,-24,-49,-29,31,0,-4,-7
1619049035.7438185,17,26,44,58,38,20,6,4
1619049035.7462223,-14,-18,-58,-99,-30,-13,-6,-4
1619049035.751273,-8,-5,-9,-49,-38,-2,-7,-6
1619049035.753052,-1,-3,10,31,-4,4,6,3
1619049035.7563505,3,25,84,85,-12,-37,-11,-4
1619049035.7582617,-3,-5,-26,-4,38,35,4,-3
1619049035.7673573,-11,-28,-65,-78,-2,-19,-5,-5
1619049035.7693012,-1,5,20,19,-5,7,-5,-4
1619049035.7743478,-5,-12,-24,-68,-74,-34,-4,-1
1619049035.776592,-6,-16,-56,-25,-25,-10,-5,-6
1619049035.78004,8,19,56,7,-24,21,9,6
1619049035.7819684,6,6,0,33,75,18,3,1
1619049035.7851684,-12,-22,-66,-28,5,-4,-6,-3
1619049035.7870896,1,5,37,41,13,6,1,-1
1619049035.7967808,7,-4,-37,-24,-25,-9,8,0
1619049035.7990282,-4,6,26,36,-1,-23,-16,-3
1619049035.8024576,-2,-6,-2,-29,29,28,4,0
1619049035.8043249,5,2,11,48,-33,-2,6,3
1619049035.812456,-8,-15,-27,-16,-8,3,-2,-4
1619049035.814729,5,18,48,4,-58,-30,-5,0
1619049035.8340938,-4,-12,-53,-44,90,23,4,-4
1619049035.836027,-5,2,22,21,-43,-25,-11,-3
1619049035.838581,-6,-23,-67,-72,29,25,4,0
1619049035.8404527,16,46,83,73,-24,1,3,5
1619049035.8439777,-13,-26,-61,-71,-32,-17,-9,-9
1619049035.8458169,14,23,44,48,8,3,7,10
1619049035.8559272,-21,-35,-84,-63,-23,11,-11,-11
1619049035.857789,-7,1,33,46,-45,-15,-5,-7
1619049035.8635495,7,-3,-46,-40,-5,9,10,9
1619049035.865369,-5,7,44,50,3,1,-7,-11
1619049035.8711607,6,14,40,24,-42,-24,-7,6
1619049035.8729925,-4,-29,-92,-112,-33,-9,-2,-1
1619049035.8763902,8,35,126,127,42,4,3,-1
1619049035.87819,-6,-23,-69,-67,78,33,9,0
1619049035.8937926,17,25,57,120,24,-5,0,7
1619049035.895861,-29,-29,-50,-75,-1,2,-7,-19
1619049035.932845,17,18,34,34,0,19,3,16
1619049035.9348838,17,20,47,34,83,11,5,8
1619049035.9375625,-4,2,-2,-15,60,-2,1,-5
1619049035.9395225,8,-1,0,20,91,48,14,12
1619049035.9429917,-16,0,17,1,-38,-36,-10,-15
1619049035.944885,2,3,4,26,5,-1,-2,3
1619049035.947445,0,-7,-36,-59,13,3,3,1
1619049035.9492955,3,20,81,91,21,-26,-14,-5
1619049035.9553022,-13,-17,-65,-71,-8,1,-6,-9
1619049035.9571817,-5,0,-5,32,-4,6,5,0
1619049035.9597404,4,-3,8,-25,46,26,8,2
1619049035.9615302,8,-22,-91,-128,-9,10,9,10
1619049035.9647546,2,13,58,127,-2,-9,-3,-5
1619049035.9666567,-5,-11,-55,-123,-30,-24,-10,-1
1619049035.9691577,-6,10,54,77,13,-11,-8,-5
1619049035.971053,1,-12,-37,21,53,13,7,4
1619049035.9832742,9,11,30,59,24,16,2,4
1619049035.9851277,-2,7,19,-44,-35,3,2,-2
1619049035.9917626,-18,-21,-50,-52,-73,-32,-17,-17
1619049035.993669,0,3,16,14,-13,-1,2,6
1619049035.9969254,-7,-25,-66,-87,-1,7,4,-2
1619049035.998784,1,30,75,64,-35,-36,-15,-5
1619049036.0133908,17,20,51,73,2,12,11,15
1619049036.0152793,-17,-24,-75,-81,-29,-18,-10,-14
1619049036.0185041,4,-1,12,37,-26,-13,0,4
1619049036.020348,14,1,1,-25,12,30,13,13
1619049036.027058,-5,-9,-28,-42,61,-7,-8,-8
1619049036.0290437,-3,5,21,98,36,13,7,0
1619049036.042055,-14,-11,-27,-56,-31,-1,-11,-10
1619049036.0440817,-14,-25,-68,-46,-21,-23,-2,-13
1619049036.0513124,-6,10,34,42,-50,-10,-3,-1
1619049036.053309,30,1,-30,-37,-44,-2,4,22
1619049036.0566375,-5,-3,-13,-14,19,-15,-5,-5
1619049036.0586047,1,-1,-3,6,6,8,-1,1
1619049036.0741627,0,10,35,17,-3,16,4,-5
1619049036.076208,0,10,25,-40,-77,-31,-5,-3
1619049036.0795512,-8,-9,-2,44,13,1,-11,-2
1619049036.0814342,-8,-24,-84,-128,-64,-24,-1,1
1619049036.0945477,10,13,36,60,59,1,-2,3
1619049036.0954206,-5,1,6,20,-8,-1,-2,-2
1619049036.1121633,8,1,-6,-29,39,27,14,4
1619049036.1140382,-11,-8,-3,-3,-11,7,-3,-7
1619049036.1165676,9,9,8,18,-3,0,3,8
1619049036.1184816,-1,1,17,41,-15,-7,-10,-7
1619049036.1216764,0,-1,-29,-41,21,6,4,2
1619049036.1235268,8,14,63,112,58,15,6,4
1619049036.134844,-3,-9,-31,-103,-60,-2,0,-1
1619049036.1366866,1,9,30,19,-4,2,4,1
1619049036.1399028,-4,-4,13,-1,-40,-11,-10,-4
1619049036.1417086,-6,-9,-20,-35,-55,-14,-6,-1
1619049036.156626,-5,1,23,51,2,-15,-15,-9
1619049036.1585162,-2,3,7,-16,-30,2,2,-2
1619049036.1617672,3,10,19,12,-10,7,4,0
1619049036.16362,-4,-8,-31,-55,41,9,-2,4
1619049036.1709557,10,22,74,92,-16,-6,4,4
1619049036.1727936,-6,-9,-13,1,-2,20,3,-6
1619049036.1760159,1,0,4,-43,-27,-31,-7,-1
1619049036.1778224,-1,4,42,71,9,4,1,-2
1619049036.201907,-7,-12,-34,23,42,4,-5,-5
1619049036.203902,1,0,-13,-15,27,11,4,3
1619049036.2071536,-2,-15,-47,-89,-31,9,8,1
1619049036.209001,-10,-12,-12,54,16,-14,-13,-12
1619049036.2115946,-1,-7,-14,-34,5,2,5,1
1619049036.2134268,4,16,37,20,27,5,1,3
1619049036.2166004,6,10,32,62,86,17,6,6
1619049036.2185123,1,-2,-17,-45,-37,-12,-2,-2
1619049036.2310243,2,1,-22,-47,-71,0,4,5
1619049036.232861,-13,-20,-29,29,64,-6,-10,-11
1619049036.2360814,12,20,38,50,37,10,10,10
1619049036.2379563,9,-2,-29,-41,58,25,14,6
1619049036.2534719,-7,0,18,38,-53,-28,-16,-7
1619049036.2553356,-10,-25,-89,-119,-42,-8,-2,-4
1619049036.258574,5,10,37,32,-22,-22,-6,-3
1619049036.260422,16,28,58,86,59,32,16,10
1619049036.2761066,-10,-18,-33,-69,43,5,-8,-11
1619049036.2781591,-1,-9,-43,-65,-18,4,-1,3
1619049036.2816172,-7,3,44,69,-3,6,-4,-7
1619049036.283465,5,8,18,35,-25,-5,4,5
1619049036.29122,-4,-6,-5,1,21,-9,-5,-5
1619049036.2930908,3,11,32,78,-27,-20,-6,-4
1619049036.2963738,-8,-20,-56,-100,-18,12,-4,-4
1619049036.298208,-14,-31,-79,-108,-48,-18,-6,-5
1619049036.3135602,15,29,72,122,81,19,11,8
1619049036.3154485,-6,-13,-32,-54,-59,-37,-13,-7
1619049036.3187768,6,15,38,32,-24,-16,0,1
1619049036.3206193,-9,-14,-36,-61,-22,-8,-11,-7
1619049036.3359585,-5,-11,-31,-33,-2,-5,-1,0
1619049036.3378172,5,10,46,42,73,29,9,3
1619049036.342105,10,8,1,-2,27,6,8,7
1619049036.3439524,11,22,61,63,-28,-5,2,4
1619049036.351203,-18,-30,-57,-58,3,-4,-12,-10
1619049036.35305,14,34,96,127,34,6,7,9
1619049036.3562727,-9,-13,-35,-70,-70,-5,-4,-5
1619049036.3581042,-4,-7,-10,-27,-7,-17,-3,-3
1619049036.3889074,7,22,70,68,-38,-18,-5,0
1619049036.3909197,-6,-14,-28,-20,-4,-3,-3,-4
1619049036.3944373,-5,-9,-21,-31,-3,-7,-4,-2
1619049036.3964503,-2,-5,-22,-44,0,16,0,-2
1619049036.3990946,-5,-8,-19,-36,-30,-11,-2,-4
1619049036.4009418,-11,-19,-55,-72,8,-6,-7,-5
1619049036.4111898,8,19,51,89,33,3,1,3
1619049036.413093,-3,-4,2,14,33,3,-3,-4
1619049036.415685,1,-3,-9,-2,-73,-23,1,2
1619049036.4175065,-5,-10,-31,-77,5,30,5,-1
1619049036.4206645,-7,-14,-24,14,27,6,-3,-5
1619049036.422512,-6,-10,-32,-14,7,1,-1,-2
1619049036.4333923,9,24,58,47,-15,-6,1,5
1619049036.4353137,-4,-6,0,-4,-3,-3,-3,-1
1619049036.4386442,1,-1,-12,-22,-41,-7,-3,-1
1619049036.4404593,-8,-10,-5,3,23,3,-8,-6
1619049036.4562442,11,21,43,45,39,30,14,8
1619049036.4580884,-3,-4,-21,-59,-19,5,-1,-5
1619049036.4614334,-2,-1,1,19,-12,-2,-3,-1
1619049036.4633772,4,2,-12,-71,-16,-10,1,2
1619049036.4715836,-13,-15,-24,-15,-9,-9,-8,-8
1619049036.4733355,2,-1,-17,5,97,39,11,2
1619049036.47887,-13,-18,-51,-87,-70,-14,-9,-7
1619049036.4807758,-3,-8,-25,-21,-32,-5,0,-2
1619049036.4924316,0,-12,-64,-70,-10,1,-1,0
1619049036.494387,0,7,44,79,44,5,-2,-1
1619049036.5072248,-3,-12,-37,-76,4,10,3,1
1619049036.5093586,-2,-4,-1,43,-1,-14,-6,-4
1619049036.5159369,0,-2,-9,-38,-21,6,-1,1
1619049036.5178046,1,-13,-44,-24,58,25,12,4
1619049036.5209973,-2,6,24,-33,-21,-7,-6,-2
1619049036.5229208,-1,9,30,34,14,-15,-2,-1
1619049036.5302696,-5,-10,-36,-67,-42,2,0,0
1619049036.5321445,-1,3,20,25,-59,-34,-8,-3
1619049036.5375965,2,6,37,105,29,-9,1,1
1619049036.539423,4,10,20,-30,-27,11,2,3
1619049036.5525296,-3,-6,-10,5,-16,-15,-2,-1
1619049036.5544438,-8,-15,-47,-73,-19,41,0,-6
1619049036.5609882,6,12,42,68,5,-8,2,3
1619049036.563148,0,-1,12,48,-9,-6,-3,-2
1619049036.5751827,0,-3,-10,-31,50,8,0,2
1619049036.5769513,-2,-5,-13,-51,-95,-33,-8,-4
1619049036.5794933,-7,-6,-8,28,25,6,-4,-5
1619049036.5812995,2,5,0,11,47,11,1,2
1619049036.589493,-4,-5,-12,-38,-13,-5,-1,-2
1619049036.5913656,5,9,31,63,6,-14,2,5
1619049036.5986893,2,0,1,-13,31,17,4,3
1619049036.6005101,-7,-9,-13,-49,-27,-24,-9,-6
1619049036.612651,-1,0,0,30,18,0,0,0
1619049036.614564,5,17,31,-5,-46,-30,-6,1
1619049036.628466,-5,-13,-45,-42,-8,7,0,-4
1619049036.630487,8,7,12,50,38,19,7,3
1619049036.6354907,-5,-2,21,31,18,8,0,-3
1619049036.6373484,-3,-8,-11,-43,-29,-3,0,-1
1619049036.6398916,10,20,33,21,26,-8,-3,2
1619049036.64172,-4,-1,11,37,-5,2,-5,-3
1619049036.6586444,-3,-7,-27,-54,-17,5,0,0
1619049036.660697,-5,-2,26,77,28,-17,-11,-6
1619049036.6651866,-7,-20,-61,-110,-32,-21,-4,-2
1619049036.6672792,6,15,46,35,-3,-7,-4,2
1619049036.6727657,3,1,-7,18,35,2,2,0
1619049036.674688,1,5,17,20,-12,2,0,-1
1619049036.6771357,-3,-13,-40,-16,18,-6,0,-3
1619049036.6790276,-6,-12,-31,-68,-46,-18,-11,-6
1619049036.697406,0,-5,-1,10,20,7,0,-1
1619049036.6994052,7,15,35,70,32,4,3,4
1619049036.7188146,-6,-9,-18,-42,-43,-13,-4,-4
1619049036.720845,3,9,39,58,11,-1,4,0
1619049036.7261443,1,-8,-37,-66,-17,8,6,1
1619049036.7282445,-7,-12,-58,-53,-31,-13,-4,-3
1619049036.7311225,2,14,42,19,-9,-8,-7,2
1619049036.732977,-3,-9,-28,-49,-35,-8,-1,-2
1619049036.74038,-1,-3,-12,1,49,31,6,-2
1619049036.742427,-4,-12,-18,-18,-22,-29,-6,-2
1619049036.747722,3,6,19,41,22,8,5,2
1619049036.7496827,0,5,3,26,20,0,-4,0
1619049036.7554734,-3,-7,-16,-28,-49,-14,-5,-3
1619049036.7572718,9,19,60,83,48,26,8,2
1619049036.7597775,1,5,10,46,-14,-17,-2,0
1619049036.7616398,-11,-19,-41,-103,-39,-8,-6,-6
1619049036.7786422,8,23,65,66,30,-6,0,4
1619049036.780721,-5,-7,-16,-28,36,16,-3,-5
1619049036.7834046,5,18,54,88,-14,-8,0,5
1619049036.7853541,-3,-12,-38,-59,15,12,5,0
1619049036.8012228,2,4,30,83,32,-5,-4,-3
1619049036.8032598,2,3,1,-19,-17,8,2,2
1619049036.8059638,-7,-10,-15,-20,7,-8,-5,-7
1619049036.8078113,3,-1,0,15,30,3,4,3
1619049036.8155546,1,8,23,12,6,2,-3,-1
1619049036.817507,-5,-5,-7,-9,-8,-9,-3,-2
1619049036.820211,-2,-11,-55,-73,-29,-8,1,-1
1619049036.8219955,0,5,18,1,-39,-8,-3,-1
1619049036.8294291,11,23,47,59,8,6,8,9
1619049036.8313005,-1,0,-2,5,-25,-24,-9,-3
1619049036.8383849,1,-7,-37,-51,10,15,5,2
1619049036.8402083,-1,1,2,-13,-9,-2,-1,0
1619049036.853222,-4,-18,-70,-98,-51,-28,-9,0
1619049036.8551166,-4,10,68,66,87,27,-1,-7
1619049036.8603132,-1,6,33,46,60,17,2,2
1619049036.8623068,-2,-8,-38,-55,-36,5,2,1
1619049036.875571,-2,-2,4,17,28,8,1,-4
1619049036.877483,3,-1,-14,2,-9,1,4,4
1619049036.880085,-3,-10,-21,-25,8,21,1,-5
1619049036.881895,0,8,32,67,29,-4,-2,-2
1619049036.8895564,-6,-10,-22,-12,-5,3,2,-2
1619049036.8914444,-2,-9,-40,-101,-16,-11,-1,1
1619049036.8982108,3,19,72,104,13,0,-5,-7
1619049036.9000635,-4,-6,-27,-49,-36,-24,-9,-2
1619049036.9212115,1,-1,0,19,5,-1,2,1
1619049036.9232805,-7,-16,-41,-90,-82,-2,-4,-4
1619049036.9260037,-2,-7,-22,-45,-11,7,2,-1
1619049036.9280632,3,9,35,63,49,11,3,-1
1619049036.9436684,-3,-8,-35,-51,-30,-6,-4,-2
1619049036.9456625,-4,-5,-19,-26,-38,-13,-2,-1
1619049036.9483836,-1,-6,-13,4,25,12,2,0
1619049036.9504476,4,18,66,83,-18,-13,-6,-1
1619049036.953874,-2,-2,0,-14,7,4,0,-1
1619049036.9558876,3,-2,-4,3,15,3,4,1
1619049036.9654002,0,6,33,29,-20,-21,-9,0
1619049036.9674404,-2,-11,-34,-41,48,7,1,0
1619049036.972834,-7,-7,-14,-20,-47,-12,-7,-5
1619049036.9749973,-9,-15,-30,-11,-13,-12,-8,-7
1619049036.9776993,8,18,37,9,-5,-2,6,6
1619049036.9796503,-4,-17,-46,-34,-22,6,5,-1
1619049036.9958627,-4,5,38,15,-52,-32,-19,-10
1619049036.99787,-4,-7,-16,-20,13,4,-1,-4
1619049037.0005918,-7,-9,-24,-13,-2,4,-2,-2
1619049037.0025868,2,4,3,9,-3,-4,1,0
1619049037.0094426,-5,-2,-3,-32,-60,-32,-8,-4
1619049037.0114486,6,12,30,69,46,23,8,6
1619049037.0255153,-3,-11,-40,-65,-30,-17,-7,-5
1619049037.0275352,4,5,4,-5,17,12,5,3
1619049037.0326362,-2,1,27,82,72,29,2,-1
1619049037.034638,2,7,11,-6,-3,-15,-5,2
1619049037.0370877,-1,-13,-42,-53,2,5,3,2
1619049037.038953,12,21,59,83,18,-2,4,5
1619049037.0549996,-1,0,-9,-65,-57,-24,-8,-2
1619049037.056996,-1,-2,-14,-30,-28,1,0,-1
1619049037.0626824,-5,-8,-17,-7,22,-1,-3,-3
1619049037.0645642,-2,0,3,15,15,-1,1,1
1619049037.069373,2,-2,-21,-5,19,-13,-1,0
1619049037.0712793,-3,6,31,11,-30,-8,-8,-5
1619049037.077831,1,1,2,-13,-22,-2,1,2
1619049037.0797389,-3,-10,-25,-31,-12,1,-5,-4
1619049037.092907,-7,-10,-18,19,36,12,3,-3
1619049037.095051,-1,-9,-25,-36,-10,-5,4,0
1619049037.0977426,9,23,80,118,62,22,5,2
1619049037.0995617,-7,-14,-28,-39,-45,-10,-6,-4
1619049037.1238089,3,3,5,-15,12,10,2,2
1619049037.1258273,3,4,13,14,17,1,1,2
1619049037.128562,-3,-3,-6,-24,-19,-6,-2,-1
1619049037.130604,-5,-5,-5,4,7,5,-4,-5
1619049037.134035,-2,-10,-44,-65,14,9,1,0
1619049037.1360524,6,15,36,53,3,8,3,1
1619049037.1385741,-3,-4,-12,-28,-29,-13,-3,-2
1619049037.1404076,-1,-3,-15,-22,-19,-15,-2,0
1619049037.152732,-6,-4,-11,14,16,9,-3,-3
1619049037.1546297,1,5,14,15,7,5,2,1
1619049037.1570818,-7,-12,-26,-32,-3,-5,-7,-6
1619049037.15896,3,4,4,-16,-6,10,3,2
1619049037.1753142,2,-5,-14,-23,42,18,7,4
1619049037.177196,4,12,41,60,33,-1,-2,1
1619049037.1798115,-3,-5,-1,11,6,3,0,0
1619049037.1816504,-7,-9,-26,-63,-51,-19,-9,-6
1619049037.1993313,-2,1,2,-17,-28,-7,-1,0
1619049037.2011886,1,-2,-21,-23,-3,-3,-2,-1
1619049037.2036917,-1,-8,-24,-12,27,11,0,-1
1619049037.2054691,1,3,21,35,42,24,5,2
1619049037.2211354,2,10,38,41,19,-9,-4,0
1619049037.2231703,-8,-11,-22,-33,-29,-12,-5,-2
1619049037.2258646,1,10,30,42,11,-2,-1,0
1619049037.2277162,-1,-3,-9,-18,-29,-6,-2,-1
1619049037.2441146,2,4,16,34,2,3,0,-1
1619049037.2461724,3,-8,-25,-16,16,9,6,2
1619049037.2486832,-6,-6,-3,-13,-20,-7,-6,-8
1619049037.2505794,-1,5,24,72,44,17,1,1
1619049037.257372,0,2,12,29,5,-1,0,1
1619049037.259253,-3,-1,-11,-40,-28,-11,-4,-1
1619049037.2651508,2,-4,-13,-29,0,4,5,1
1619049037.2670352,-2,-7,-22,-30,7,0,0,-4
1619049037.2726715,1,3,11,19,2,0,-2,-4
1619049037.2745805,3,2,9,19,11,5,5,1
1619049037.2770839,-4,0,8,5,-16,-8,-6,-2
1619049037.2790523,-1,0,3,4,1,2,0,0
1619049037.2962363,-3,-9,-25,-35,-1,1,1,0
1619049037.2982416,-1,-1,-4,15,9,-2,0,-1
1619049037.310429,3,5,12,21,16,10,4,1
1619049037.3124878,-2,-6,-14,-32,-18,-8,-5,-3
1619049037.3184125,-1,0,4,18,4,6,-1,0
1619049037.320406,-6,-9,-23,-35,-8,-4,-3,-3
1619049037.322937,2,2,-2,4,6,4,3,0
1619049037.3248334,2,-2,-32,-60,-23,6,5,3
1619049037.3330197,2,10,47,33,-2,-6,-1,-2
1619049037.334904,-1,-1,2,-13,9,-2,-8,-1
1619049037.3399951,-1,-2,-9,-29,-12,-7,-3,0
1619049037.3418484,-8,-15,-49,-48,2,0,1,-1
1619049037.3642592,0,3,-2,-25,-18,-1,3,1
1619049037.3664024,1,14,55,82,13,-5,-5,-5
1619049037.3692257,-3,-5,-11,-13,-3,-3,-1,0
1619049037.3711772,3,9,25,20,3,-7,-3,0
1619049037.3794675,-1,-3,-4,4,5,5,0,-1
1619049037.3814256,2,0,-8,-18,1,4,1,1
1619049037.3839622,-1,-5,-19,-17,-20,-6,-1,-1
1619049037.3857777,3,11,50,47,-3,-4,-1,-1
1619049037.3937933,-9,-15,-31,-28,-16,-2,-4,-5
1619049037.395765,-4,-9,-22,-31,-13,-4,-2,0
1619049037.400813,-1,-3,-9,-3,-3,-5,-1,-2
1619049037.402906,0,-1,0,3,-9,-3,-1,2
1619049037.4152865,6,6,4,36,21,11,5,3
1619049037.4171183,1,-1,2,-12,16,6,3,0
1619049037.4196312,-4,-4,1,-8,-28,-11,-7,-4
1619049037.4214392,-3,2,7,9,6,0,-1,0
1619049037.4462407,-2,-4,-18,-34,-4,5,2,1
1619049037.4483004,-2,-2,-1,22,1,0,0,-1
1619049037.4509637,3,4,14,2,7,1,0,1
1619049037.4528065,0,-2,8,4,1,-1,-1,-2
1619049037.461015,1,-1,5,1,-2,-3,-2,0
1619049037.463103,1,-2,-5,10,0,-1,-1,-1
1619049037.465731,0,0,1,-5,-7,-3,-1,-1
1619049037.4675088,0,0,2,14,15,1,-2,-2
1619049037.4753137,2,3,6,-3,5,-4,-1,0
1619049037.4771929,-2,-1,6,15,-6,0,1,-1
1619049037.4797843,-1,-4,-20,-30,-2,4,3,1
1619049037.4816077,-3,1,18,43,22,4,-3,-4
1619049037.4999113,-3,-4,-9,-27,-4,-3,0,-1
1619049037.501742,-1,-6,-15,-22,-10,-2,0,-1
1619049037.5042834,-1,-3,-3,21,5,0,0,0
1619049037.506144,0,3,9,9,4,-1,-1,-1
1619049037.529225,-2,-4,-3,-20,-27,-3,-3,-2
1619049037.5313482,-2,2,7,12,-8,-6,-3,-4
1619049037.5340319,-2,-4,-9,-11,1,1,1,0
1619049037.535898,-1,-2,1,15,11,1,1,-1
1619049037.5390446,0,2,8,11,-11,-8,-4,-2
1619049037.540893,-5,-6,-12,-17,-7,4,0,-1
1619049037.543432,1,3,10,13,3,1,1,0
1619049037.5453794,-1,-6,-13,-16,-4,-5,-2,-2
1619049037.590382,-3,-2,2,5,2,3,0,-1
1619049037.5923746,2,2,0,4,1,0,1,-2
1619049037.5951695,-2,-2,4,-2,-2,-1,-1,-3
1619049037.597187,-2,-2,-8,-10,-5,0,-3,-3
1619049037.6006963,0,0,-3,2,3,1,0,1
1619049037.6027699,1,3,4,10,6,-1,-4,0
1619049037.6054587,1,2,6,-1,-9,0,1,1
1619049037.6072707,-3,-3,-8,-9,-7,-3,-2,-1
1619049037.6103551,-1,0,2,7,4,0,-2,-2
1619049037.6121895,0,2,2,0,2,-10,1,2
1619049037.6148,0,1,2,1,3,-2,-2,-1
1619049037.6166334,-3,-3,-6,-7,-3,-1,1,-1
1619049037.6205156,-2,-1,-5,-4,-4,-1,2,-1
1619049037.6228578,0,1,3,6,-3,-3,-3,-2
1619049037.6268134,1,3,4,6,3,0,-1,0
1619049037.6295288,0,-1,-3,-7,-5,-3,-1,1
1619049037.6336284,1,-1,1,6,6,6,3,-2
1619049037.636103,-2,-4,-4,-7,-3,4,0,-4
1619049037.6486762,-1,-1,2,1,2,-2,-4,-2
1619049037.6506846,0,-1,-2,-6,-1,0,-2,1
1619049037.656718,-1,-1,-1,-2,-2,2,-2,-1
1619049037.6586292,-2,0,0,1,-1,1,-1,0
1619049037.660962,-2,-4,-6,-5,-2,-2,-2,-2
1619049037.662887,1,-2,-5,-6,-2,9,5,-2
1619049037.6865523,1,-2,-4,3,5,3,2,-1
1619049037.6882617,-1,0,0,-4,-5,0,0,-1
1619049037.6906369,-2,-2,-2,-1,4,-5,-1,-2
1619049037.6923258,1,1,2,-1,-2,-4,-1,1
1619049037.7098253,-1,-2,3,4,-1,-6,-2,0
1619049037.7116919,2,1,5,4,2,-11,-6,-1
1619049037.716053,2,3,-2,-15,-9,-1,1,2
1619049037.7177339,0,-1,1,24,8,-5,-5,-3
1619049037.723545,0,0,-2,-2,1,-5,0,2
1619049037.725263,0,0,2,4,3,1,3,0
1619049037.7374527,-2,-2,-2,3,1,1,-2,0
1619049037.7391872,1,0,1,-8,-1,-2,-1,-1
1619049037.7559252,-1,-1,0,-3,-5,1,-1,-1
1619049037.757621,-2,-2,-3,-1,-2,3,1,0
1619049037.7599585,1,0,1,1,1,0,0,-1
1619049037.7616656,0,-4,-4,-7,-2,0,-1,0
1619049037.8084962,0,-1,-1,4,3,0,-2,-1
1619049037.8103402,3,-2,-3,-7,-3,2,-2,-2
1619049037.8130314,-2,1,2,8,1,0,-1,-1
1619049037.8148723,-1,0,-3,-6,-2,-3,-1,2
1619049037.8225853,-1,0,-3,-1,-2,-3,-2,-3
1619049037.8244884,-1,-2,-2,0,-2,1,0,-1
1619049037.8270102,0,-3,1,4,2,0,1,-1
1619049037.8289661,-2,-3,-3,-4,-3,1,1,-3
1619049037.8322272,-2,1,2,1,0,0,-4,-2
1619049037.8339257,-4,-1,-1,-1,1,-3,-2,-2
1619049037.8362563,1,-3,-2,-1,-1,0,-2,-2
1619049037.837945,0,-2,-2,-2,0,-1,0,0
1619049037.8533728,-2,0,0,1,0,-6,-3,-1
1619049037.8552113,0,-2,-2,-2,-3,-1,0,-1
1619049037.857653,0,0,1,-1,0,-1,0,0
1619049037.859346,-1,0,2,-1,-1,-3,-2,-1
1619049037.865802,-2,-3,-5,-3,0,3,1,0
1619049037.8675299,-1,-2,-3,-3,-2,-1,-2,0
1619049037.8823736,1,-1,-1,0,1,-1,-1,-1
1619049037.8841088,-1,0,0,2,-1,-2,-2,-2
1619049037.8871467,0,-2,1,0,0,-2,-1,-1
1619049037.8888295,-2,-2,-1,-1,-2,-1,0,0
1619049037.8911633,-2,0,-2,-1,-2,-1,-1,0
1619049037.8928518,-1,0,0,-1,-1,-2,-2,1
1619049037.9124715,2,-1,-1,-1,-4,-3,-4,-2
1619049037.9143312,1,-1,0,0,0,-1,-2,-2
1619049037.9257505,-2,-1,-1,0,0,-1,0,-2
1619049037.927472,0,-1,-2,0,-1,-2,-3,-1
1619049037.935459,-1,-1,-1,-2,1,2,1,0
1619049037.9371595,-3,-1,2,-2,0,1,-1,0
1619049037.9394994,-3,2,2,2,0,-1,-3,-2
1619049037.9411972,-1,-4,-4,-4,-3,10,2,-1
1619049037.9645038,-1,-1,-3,-3,0,-1,1,0
1619049037.9665504,-1,-3,-1,2,-3,1,-1,-2
1619049037.9706001,0,0,0,0,-2,-1,-2,-1
1619049037.9722934,0,-1,-1,0,-1,-10,-3,0
1619049038.0257437,-2,-1,0,1,-2,0,0,0
1619049038.0275955,-2,-1,0,-1,-2,-5,-3,-1
1619049038.0302837,-1,-1,0,-2,0,-1,0,0
1619049038.0321045,3,2,2,2,0,-1,-2,-2
1619049038.0353627,0,0,0,2,1,-2,-4,-1
1619049038.0371783,-1,0,-2,1,1,-2,-1,0
1619049038.0619636,-3,-4,-2,-1,0,-3,0,0
1619049038.0640423,-1,-2,-1,-2,0,-3,-2,-1
1619049038.0856054,-2,-2,-2,-2,-2,4,0,-1
1619049038.0874572,1,0,1,1,1,2,-2,-1
1619049038.0899513,0,0,-1,0,-3,0,0,-1
1619049038.0917816,-1,-5,-2,-4,-1,2,1,-1
1619049038.1000648,1,1,1,2,-1,-5,-2,-2
1619049038.1019208,0,-2,-3,-2,-2,-2,-1,-2
1619049038.104245,0,1,1,0,1,-1,-1,0
1619049038.1059322,0,1,4,1,-2,-6,-5,-1
1619049038.1082745,1,-2,-1,0,1,-4,-1,-1
1619049038.1099508,0,-1,0,-1,-2,-1,-2,-1
1619049038.1301196,-1,-2,-3,-1,-1,-4,-2,0
1619049038.132158,-2,-1,-4,-4,-2,-3,0,-1
1619049038.1347795,-2,-3,-1,-1,-2,1,-2,-2
1619049038.1364686,-2,0,-2,-2,0,2,2,1
1619049038.1394956,0,-1,0,2,0,-2,-2,-1
1619049038.1411998,0,-2,-3,-2,-1,0,0,-2
1619049038.1443026,1,0,-2,-2,0,1,1,-1
1619049038.1463652,0,0,2,2,1,-1,-3,-1
1619049038.1498928,0,1,1,2,0,0,-2,0
1619049038.1517231,-2,1,0,1,1,-1,-1,-1
1619049038.1542313,-1,-1,-1,-2,-1,-1,-1,0
1619049038.1560936,-2,-2,-2,0,1,1,1,0
1619049038.1811285,-2,-2,-4,-6,0,3,0,0
1619049038.1832118,-1,-2,0,-1,-2,0,-2,0
1619049038.1888995,-2,0,0,0,-1,-3,-4,-1
1619049038.1908898,0,0,-1,0,0,-3,-2,-3
1619049038.2055793,0,-1,0,-2,-1,-4,-1,-2
1619049038.207437,-2,-2,0,-1,2,-2,1,-1
1619049038.2100894,0,0,-2,-2,-2,0,1,1
1619049038.2119358,-2,-1,1,1,1,1,0,0
1619049038.2182753,-3,-2,-2,-2,-1,-2,1,1
1619049038.2201374,-2,1,0,0,-1,-3,-1,-1
1619049038.2325463,0,0,-1,0,-1,0,-2,-1
1619049038.2344463,0,1,-3,-2,-1,-3,-1,-2
1619049038.2642796,-1,-2,-1,0,-2,-3,-1,-1
1619049038.2663434,-1,-1,-3,-3,-2,0,-1,0
1619049038.2708876,-2,-2,-1,-3,0,0,-2,-1
1619049038.272887,0,0,0,4,0,-2,-3,-1
1619049038.3086712,-2,1,-1,0,-2,0,1,-2
1619049038.3106744,0,-3,-3,-2,0,2,1,-1
1619049038.33273,-1,0,2,1,-4,-1,1,1
1619049038.3348513,-4,-1,0,-2,-1,0,-2,0
1619049038.3384392,-2,2,0,-1,-3,0,-1,-2
1619049038.340436,0,4,3,4,2,-2,0,-1
1619049038.3626893,-1,-2,-1,-1,-1,-3,-3,0
1619049038.3647952,-1,-3,-2,-3,-2,-3,-1,-2
1619049038.3683164,-1,-1,-1,-2,-2,-2,-1,-1
1619049038.3704364,-2,-3,-3,-2,-2,3,1,0
1619049038.3730974,0,-1,-2,0,1,0,1,0
1619049038.3751543,-1,0,-4,0,1,0,-1,0
1619049038.377841,-3,-2,-1,1,0,-2,-1,-2
1619049038.3798351,-1,-2,-2,-1,-2,-1,-3,-1
1619049038.3824844,-2,-1,-3,-3,-2,-2,-1,-1
1619049038.3842788,0,-2,-1,-2,-2,-1,1,-1
1619049038.3868248,-1,-1,-1,0,-1,-1,0,1
1619049038.388684,-1,-1,0,0,0,-2,-1,1
1619049038.3911848,1,0,1,2,-1,-2,1,0
1619049038.3929772,-1,0,0,0,-1,-4,-5,-2
1619049038.395448,0,-2,-1,2,0,-3,-2,0
1619049038.3973122,-1,-2,1,0,-1,1,0,1
1619049038.408324,-1,-3,-3,-1,-2,1,-2,0
1619049038.410166,-1,-1,0,-1,-1,-1,0,1
1619049038.4126852,0,-1,-1,-2,-1,2,-2,-2
1619049038.414603,-1,-1,-2,-1,-3,-1,-3,-2
1619049038.4232507,0,1,-2,-2,-2,1,0,-1
1619049038.4250586,-2,-3,-2,-2,-1,0,-1,1
1619049038.4275405,-3,-2,-1,-2,-2,-4,1,0
1619049038.4293826,0,0,0,-2,1,0,-1,0
1619049038.435528,0,-1,2,1,1,-4,-4,-1
1619049038.4373937,-1,-1,0,-2,-1,0,-2,-3
1619049038.4399176,2,1,-1,-2,-2,1,0,1
1619049038.4417102,-1,0,-1,-1,-2,0,0,0
1619049038.467426,-2,0,-1,-1,0,1,0,-1
1619049038.4693816,-1,-3,-1,-1,1,0,-1,-1
1619049038.4720192,-1,-3,-1,1,0,0,-2,-2
1619049038.4739714,0,-1,-2,-1,-2,0,-1,-2
1619049038.4811976,2,-1,-2,-1,0,2,1,0
1619049038.483088,-1,0,0,-2,-1,-2,-1,-1
1619049038.4855978,-2,0,0,-3,0,0,0,-1
1619049038.4874067,-1,0,1,1,-1,-2,-1,0
1619049038.5284832,-4,-2,-1,0,-2,-1,-2,-1
1619049038.5311327,-1,-1,-1,-1,-1,0,3,0
1619049038.533875,-1,0,-4,-5,-1,0,-2,-1
1619049038.5357335,-2,-2,-3,-2,-2,-2,0,0
1619049038.5555396,-1,-1,-2,-3,-3,0,-1,0
1619049038.5575895,2,0,0,0,1,2,-1,-2
1619049038.6102822,-3,0,0,1,0,-2,-3,-2
1619049038.6128628,1,-1,0,0,0,-5,-3,0
1619049038.616426,1,-1,-3,-2,-2,3,1,0
1619049038.618519,-2,-1,-1,-2,0,-1,0,-1
1619049038.6212113,-1,0,0,0,-2,-3,-1,1
1619049038.6232166,-1,-1,-1,0,0,1,0,1
1619049038.6407847,0,-1,0,0,-1,-2,-2,-1
1619049038.642713,-1,0,-1,0,0,-6,-3,-1
1619049038.6465592,-1,-1,-1,1,-2,-2,0,-1
1619049038.6484256,1,0,1,1,-1,-3,1,0
1619049038.6535199,-1,-2,-3,-3,-3,1,1,0
1619049038.6553988,0,-1,-1,-1,-3,-2,-1,-1
1619049038.6864388,-2,-1,-1,-2,0,2,-1,-3
1619049038.688308,2,-2,0,0,-3,-1,-3,-1
1619049038.6907861,-3,-1,-1,-4,-1,0,-1,-2
1619049038.6925397,0,-2,-3,-1,-1,0,-2,-3
1619049038.699593,-1,-1,0,-2,-1,-1,-1,-2
1619049038.7014554,-1,-1,-2,0,-1,1,0,-1
1619049038.70468,-1,-3,-1,-1,0,-2,-3,-1
1619049038.7065685,0,-1,-1,-3,0,-2,-2,-2
1619049038.7090347,0,-1,-1,-3,-2,0,-1,-2
1619049038.710893,1,2,-1,-1,1,-3,-4,-3
1619049038.7143135,-3,-3,-5,-2,-3,5,2,0
1619049038.7161622,-2,1,0,0,-1,1,-2,-1
1619049038.7187116,-2,-1,-4,-4,-2,-1,-1,-1
1619049038.7205179,0,-1,-1,-2,2,-1,-1,-1
1619049038.7301672,0,1,0,-3,0,-4,-2,-1
1619049038.731987,-1,-1,-1,-2,0,-1,-1,-2
1619049038.7444012,-2,-1,-1,0,-2,0,-2,-2
1619049038.7468007,-2,-2,-3,-3,-5,0,-1,0
1619049038.8334105,1,-2,0,1,0,-1,1,0
1619049038.836051,0,-1,-1,1,1,-3,0,0
1619049038.8862665,-1,0,1,0,1,-1,0,-2
1619049038.888313,-2,0,1,-1,-2,0,-2,-1
1619049038.932698,-1,-1,-2,0,-1,0,0,-1
1619049038.9353578,0,0,3,-1,1,0,-2,-1
1619049038.938101,1,1,2,-1,-1,-2,-1,1
1619049038.9400804,-1,-3,0,-2,-2,0,-1,-1
1619049038.943591,0,0,0,-4,-1,1,0,0
1619049038.9457653,-2,-1,-2,-4,-3,-1,-1,-1
1619049038.9625452,-4,-1,0,3,0,-2,-3,-1
1619049038.964778,0,0,0,-3,-2,1,-3,-2
1619049038.9674978,-3,1,-1,-3,-1,0,-2,-1
1619049038.9694543,-2,-1,-1,-1,-1,5,3,-2
1619049038.9754784,0,0,0,-2,-2,0,1,1
1619049038.977306,-2,-2,-4,-1,-3,-1,-2,-2
1619049038.9909189,-2,0,0,-2,-2,-3,0,-2
1619049038.9928732,-2,0,0,0,1,-1,-2,-2
1619049039.0050774,-1,-1,-3,-4,-2,1,0,-1
1619049039.007039,0,0,-2,-6,-3,0,0,0
1619049039.0142226,-3,-1,1,1,0,-1,0,0
1619049039.0161095,-3,-1,0,0,0,-2,0,-2
1619049039.0384262,-1,0,-2,-1,-1,-1,2,-2
1619049039.0404356,0,1,-1,-1,-1,-2,-1,-1
1619049039.043146,1,-2,-2,-1,-1,-1,-1,1
1619049039.0449665,1,-2,-1,1,-2,0,-1,0
1619049039.0487938,-2,-1,-3,-2,-1,3,1,-1
1619049039.050675,0,-1,-1,-2,-2,1,2,0
1619049039.0531814,0,1,0,1,-2,-2,-2,-1
1619049039.055039,0,-2,-2,0,0,1,-2,0
1619049039.1112242,-1,3,4,3,0,0,-2,0
1619049039.113819,-3,-1,-3,-4,-3,2,-1,0
1619049039.1165426,0,-1,-2,-2,-1,-3,-1,-1
1619049039.1185553,0,-2,0,1,0,0,0,-2
1619049039.1729786,1,-1,-1,2,-1,0,-2,-1
1619049039.1750357,3,1,1,2,0,-7,-5,-2
1619049039.193799,-1,0,-1,-1,-1,-2,-1,0
1619049039.195895,-3,-1,0,-1,-1,-2,-1,-2
1619049039.1993053,-1,-1,1,-1,0,1,1,-1
1619049039.2011452,-2,-1,-1,-3,1,-1,1,0
1619049039.204352,0,-1,-1,-3,0,-1,-2,-1
1619049039.2062118,-2,-1,-1,-5,-8,-1,-2,-1
1619049039.209616,0,-1,1,4,11,5,0,-1
1619049039.211405,-2,-1,-1,-3,-2,-2,-1,1
1619049039.2152054,-1,-9,-21,-13,-6,2,3,-1
1619049039.2170763,5,14,34,14,20,4,1,3
1619049039.231676,-3,-1,-6,-14,-13,-16,-8,-3
1619049039.23354,0,-3,-7,-13,-15,0,1,-2
1619049039.2408638,3,0,-6,4,8,2,2,-1
1619049039.2427845,-4,-4,-7,3,-4,-5,-4,-3
1619049039.2452426,3,9,27,22,25,17,4,4
1619049039.2476344,-6,-10,-26,-28,-15,-12,-5,-5
1619049039.25332,-1,2,4,3,-6,0,1,2
1619049039.2551441,5,2,4,0,6,4,4,1
1619049039.26207,-3,-2,-6,-18,-4,-3,-3,-2
1619049039.2643406,-1,-3,1,4,-6,-7,-3,1
1619049039.2996407,-1,-1,-6,-2,2,-7,-3,0
1619049039.3021796,-2,-8,-17,-18,-3,-3,-2,-1
1619049039.304941,1,2,17,17,-12,-4,-2,-1
1619049039.3069475,0,-2,-6,-17,1,5,0,-1
1619049039.480244,-2,-4,-3,35,9,1,-2,-2
1619049039.4828444,0,3,-1,-55,8,-3,0,0
1619049039.4855766,-3,-3,-5,13,-2,1,2,1
1619049039.487581,-1,-4,-14,-9,-13,-8,-2,-1
1619049039.4910157,0,1,10,6,-15,-10,-4,0
1619049039.493058,8,6,17,37,47,13,4,3
1619049039.4957132,-7,-11,-24,-19,-19,-21,-10,-4
1619049039.4980457,0,0,2,20,9,25,5,0
1619049039.5303042,-11,-33,-81,-90,-3,17,2,-3
1619049039.5329044,-3,3,39,4,-6,-13,-6,-6
1619049039.5624995,7,0,-8,-3,-31,14,13,7
1619049039.5650742,2,14,43,19,22,6,-3,0
1619049039.5677931,-2,-12,-32,33,48,40,13,3
1619049039.5697947,-4,-3,-6,-44,-27,-19,-7,-5
1619049039.5732539,-1,4,13,14,-22,17,2,-2
1619049039.5752606,6,20,39,21,24,-2,3,4
1619049039.5779889,4,7,29,-21,-13,1,-1,1
1619049039.5803297,-12,-28,-68,-26,-42,-15,-12,-8
1619049039.5829668,21,48,127,127,92,36,14,10
1619049039.5847688,-19,-33,-83,-104,-69,-36,-13,-12
1619049039.6080413,-3,-15,-62,-29,25,4,3,1
1619049039.6114821,15,30,70,21,-16,-20,5,7
1619049039.6212234,-6,-9,-28,-30,27,2,2,1
1619049039.6234086,3,-2,-19,33,36,5,2,0
1619049039.6301916,-5,8,52,80,-15,-19,-9,-8
1619049039.6325169,-3,-8,-25,-43,28,13,3,3
1619049039.6362762,-3,-4,-6,39,-45,-48,-16,-5
1619049039.638234,6,10,35,85,60,51,14,4
1619049039.6409423,6,-1,-25,-84,-13,14,9,6
1619049039.642939,-8,-8,-14,105,85,-6,-7,-13
1619049039.6529617,-11,-8,1,-53,-51,-31,-14,-9
1619049039.6548085,-1,-3,-19,-21,-42,-34,-8,2
1619049039.6573908,2,-2,1,25,-11,1,2,1
1619049039.6592586,-4,-7,-17,-55,49,29,4,-3
1619049039.7203085,5,9,15,14,0,-16,-4,0
1619049039.7223394,-7,-13,-27,-91,-113,-35,-14,-9
1619049039.725068,-2,-2,-2,-6,45,-10,-4,0
1619049039.7270653,-7,-10,-31,-57,-16,4,-2,-4
1619049039.730499,3,11,18,-26,-20,-2,2,1
1619049039.7327201,3,4,23,-2,54,6,4,0
1619049039.7501383,-10,-19,-37,2,4,-20,-6,-8
1619049039.7521346,2,9,20,41,-5,1,-6,0
1619049039.7555687,-8,-25,-83,-101,-59,5,-2,-5
1619049039.7574992,2,13,39,85,9,6,4,2
1619049039.7624156,-6,-1,8,30,3,0,-1,2
1619049039.764347,22,14,1,24,2,1,10,6
1619049039.7878504,-14,-25,-51,-65,-50,-10,-5,-6
1619049039.78988,11,13,18,2,-34,3,17,10
1619049039.7932596,2,4,23,88,49,11,-1,-5
1619049039.7952054,-6,-13,-38,-31,111,29,5,-1
1619049039.8177142,3,4,11,71,35,-10,-4,-1
1619049039.8197634,-5,-5,0,-27,64,52,11,4
1619049039.8224962,10,14,24,41,-39,-8,1,5
1619049039.8244913,-2,-19,-50,-15,57,15,3,-1
1619049039.8403897,-2,7,21,13,63,9,-3,-7
1619049039.842402,7,11,28,21,-38,-14,-1,5
1619049039.845848,-10,-24,-62,-92,-38,-7,-9,-8
1619049039.8478801,-6,-3,-13,0,-1,3,0,0
1619049039.850496,3,0,-4,-23,18,32,5,6
1619049039.8523083,8,20,69,72,-16,-27,-4,3
1619049039.8680522,-11,-10,-19,-22,-39,-21,-6,-5
1619049039.870021,-4,5,24,33,14,-2,0,2
1619049039.877547,7,-5,-23,-42,-17,-4,-3,-5
1619049039.8795328,0,-10,-37,-82,-33,-6,-3,1
1619049039.8831394,2,19,54,57,42,5,-3,0
1619049039.885074,2,8,24,16,-60,-51,-5,-3
1619049039.887592,-4,-9,-36,-66,-30,1,2,3
1619049039.889387,-11,-23,-49,-21,-1,27,-2,-10
1619049039.9076066,-2,-11,-47,-90,-2,8,6,2
1619049039.9093783,13,22,57,64,1,5,6,7
1619049039.911893,-13,-8,-2,-20,-81,-48,-21,-8
1619049039.9137785,5,13,36,9,-30,4,4,3
1619049039.9171965,2,-3,-6,35,31,-4,-1,0
1619049039.9190388,0,4,27,52,38,21,3,-1
1619049039.9215267,2,-1,-18,-39,-8,9,3,2
1619049039.9233978,-5,2,15,27,10,-2,-4,-5
1619049039.930891,10,12,10,5,-26,-10,6,5
1619049039.932785,-10,-19,-37,7,31,-22,-13,-10
1619049039.9351966,3,1,-4,-23,2,-3,-1,2
1619049039.9368804,-9,2,10,39,23,-15,-6,-4
1619049039.9399116,2,-4,-26,-95,22,6,2,2
1619049039.9415915,11,-7,-53,-90,-42,11,4,5
1619049039.9601154,0,9,37,50,-13,-7,1,1
1619049039.9618208,-9,-6,-7,-22,5,6,1,-1
1619049039.9650133,3,-13,-55,-60,10,10,1,-3
1619049039.966719,-2,0,9,21,-18,-5,1,-2
1619049039.9690301,11,0,-8,17,76,25,10,3
1619049039.9707413,-5,-8,-22,-58,-70,0,-2,-5
1619049039.9971914,-9,-2,24,51,12,6,-1,-3
1619049039.9992025,-10,-14,-34,-55,-36,-15,-6,-2
1619049040.0017447,0,9,26,33,-3,14,3,0
1619049040.0034518,-10,-19,-45,-57,-21,-28,-10,-10
1619049040.0417216,15,22,45,79,86,36,17,9
1619049040.0435853,-14,-16,-44,-58,-54,-2,-10,-10
1619049040.0461526,1,13,52,55,-60,-70,-13,1
1619049040.0480516,7,-6,-46,-87,18,20,0,3
1619049040.0885406,-4,-4,-18,-6,-18,-15,-9,-3
1619049040.0903838,-6,-19,-66,-77,16,8,5,-1
1619049040.0929368,2,4,9,0,28,21,8,1
1619049040.0947938,11,23,63,97,14,-31,-7,3
1619049040.0981104,-8,-11,-9,-30,-31,5,-7,-7
1619049040.0998323,1,-2,-3,31,75,30,7,0
1619049040.1021607,4,-6,-24,-43,-72,-41,-16,-3
1619049040.1038456,0,-2,-9,-2,10,13,6,4
1619049040.1068592,-6,-4,-5,4,0,5,1,0
1619049040.1085362,8,11,29,15,60,15,1,1
1619049040.124975,-8,-9,-23,-51,-21,17,0,-5
1619049040.12701,1,4,16,45,4,1,1,3
1619049040.1297078,-12,-16,-42,-39,15,11,-2,-6
1619049040.1317327,-4,-8,-20,-62,-53,-5,0,1
1619049040.134994,9,20,76,106,60,-3,0,1
1619049040.1368353,2,7,28,37,6,5,2,1
1619049040.146212,-7,-6,-23,-75,-69,-18,-9,-4
1619049040.1481626,3,1,8,61,-6,-20,3,1
1619049040.1513772,8,18,51,74,72,12,2,2
1619049040.1532323,-4,-9,-32,-43,-46,-23,-9,-3
1619049040.1622133,2,2,20,46,43,30,7,-2
1619049040.1641371,-4,-15,-68,-100,-91,-13,-6,-2
1619049040.1840236,3,6,8,-34,-39,-10,-3,2
1619049040.1861255,-9,-9,-9,27,49,12,-3,-5
1619049040.1886597,-1,-8,-39,-45,-26,-21,0,2
1619049040.1905625,1,6,28,41,49,17,0,-1
1619049040.2084825,0,-4,-38,-86,-19,17,5,4
1619049040.2104967,0,4,33,0,-35,0,-1,-3
1619049040.2130623,4,9,35,2,-39,-5,0,2
1619049040.2149675,-1,5,8,52,43,6,0,-3
1619049040.2510343,-7,-7,-6,-22,-45,-13,-4,-2
1619049040.2529933,-1,-17,-62,-42,42,33,14,2
1619049040.2730353,4,23,72,104,9,-12,-7,1
1619049040.2750616,-2,-1,7,-19,-37,3,2,-1
1619049040.3052325,-3,-5,-6,36,93,10,-1,-3
1619049040.3072438,1,-2,-43,-92,-54,-14,0,0
1619049040.3099859,1,7,31,43,-23,-21,-8,-5
1619049040.3122163,-3,-11,-22,11,61,20,4,2
1619049040.335902,0,4,6,26,-31,-21,-3,1
1619049040.3378887,-5,-5,1,-6,-13,-6,-5,-4
1619049040.340563,-2,-11,-36,-71,-21,4,1,0
1619049040.342567,-6,-10,-32,-42,-35,-28,-10,-6
1619049040.3452814,0,-2,-19,2,12,-14,1,0
1619049040.3473053,-6,-8,-11,8,45,5,-1,-1
1619049040.3499887,-2,-4,4,52,38,11,2,0
1619049040.351841,2,2,-3,-16,11,8,4,0
1619049040.3550339,-3,-6,-17,-49,-79,-20,-3,1
1619049040.3568814,-8,-9,-1,6,5,-14,-10,-9
1619049040.3647473,1,-12,-62,-105,-53,2,0,2
1619049040.366727,-1,9,53,89,79,16,-3,-7
1619049040.3700202,0,-6,-21,-27,17,6,4,2
1619049040.3718512,3,7,-5,-8,14,5,0,-1
1619049040.3743963,3,6,23,33,-2,-3,3,2
1619049040.3762405,-7,-17,-50,-20,15,-12,-5,-3
1619049040.379412,2,3,22,3,-12,-4,0,0
1619049040.3812988,-3,-4,-6,18,0,-13,-5,-3
1619049040.3936481,-2,-1,1,-39,-17,2,-2,-2
1619049040.3955207,-5,-7,-7,-25,24,23,3,-4
1619049040.3988283,-1,2,2,-27,-58,-21,-4,-1
1619049040.4006789,4,20,78,95,75,16,-1,1
1619049040.4032166,-4,-6,-14,-22,-6,-19,-6,-1
1619049040.4050806,7,13,28,15,-16,-7,1,5
1619049040.4247427,-8,-20,-65,-82,-23,1,-2,-4
1619049040.4266627,-1,-2,2,20,25,29,10,1
1619049040.4291773,1,-1,-6,-57,-49,-15,0,0
1619049040.4311564,-6,-9,-14,-27,-24,-14,-10,-5
1619049040.4553103,-4,-9,-19,6,41,26,0,-5
1619049040.4573154,-5,-9,-38,-62,-9,-13,-5,-1
1619049040.460001,-2,-2,8,7,31,20,4,0
1619049040.4618533,9,25,46,5,-36,-16,-1,6
1619049040.465258,1,7,31,52,9,15,5,3
1619049040.4671555,3,-4,-12,-8,-13,1,4,2
1619049040.4696457,-6,-8,-10,-7,-29,-16,-11,-6
1619049040.4714205,-9,-21,-65,-107,-10,4,-3,-5
1619049040.4745526,6,15,38,41,28,2,3,2
1619049040.476341,2,-1,-12,-38,-31,8,9,3
1619049040.4847808,-2,4,12,20,-29,-38,-17,-4
1619049040.4867058,1,0,1,-9,-21,-3,0,2
1619049040.4898858,-10,-24,-68,-97,-38,-21,-8,-5
1619049040.4917285,10,18,28,56,-18,3,1,4
1619049040.521413,4,7,8,65,64,13,5,1
1619049040.5234277,-7,-13,-33,-69,-86,-18,-8,-5
1619049040.5527058,-5,-20,-62,-68,-36,-19,-5,-5
1619049040.5547118,0,-1,19,32,38,20,1,0
1619049040.5573816,2,5,17,44,7,1,2,1
1619049040.5593941,3,6,10,13,55,30,8,3
1619049040.5626833,-7,-5,-14,-1,9,5,0,-1
1619049040.564582,-3,-8,-29,-65,-69,-32,-7,-1
1619049040.5671787,-2,3,19,30,28,8,-6,-7
1619049040.5690024,0,-5,-4,24,1,22,7,1
1619049040.5721443,5,15,45,38,9,-8,2,2
1619049040.5739303,-5,-5,-1,9,45,12,3,-4
1619049040.5800645,-5,-10,-34,-56,-7,-5,-2,0
1619049040.5819445,-5,-10,-38,-81,-61,-24,-8,-3
1619049040.611575,10,21,86,101,47,16,4,4
1619049040.6135116,-2,4,24,22,24,-12,-11,-5
1619049040.6163006,1,3,5,34,75,48,11,1
1619049040.6181266,0,-1,0,20,9,-10,-3,1
1619049040.6423829,6,10,10,51,-20,-16,0,2
1619049040.644369,-9,-11,-20,-38,-54,-17,-11,-6
1619049040.6470637,-5,-16,-46,-74,29,12,3,-1
1619049040.6489062,10,27,78,75,68,23,9,4
1619049040.6521244,1,0,-7,-17,-10,11,1,1
1619049040.653989,-2,0,5,46,22,-4,2,0
1619049040.6564558,-5,-9,-28,-54,-21,-10,-6,-5
1619049040.658312,2,0,3,47,-12,7,0,-2
1619049040.6614134,-4,-6,-23,24,-38,-21,-8,-3
1619049040.6632726,6,8,19,-24,22,13,6,4
1619049040.6731825,-2,4,34,85,88,21,-3,-6
1619049040.6750717,-10,-16,-48,-78,-99,-32,-13,-3
1619049040.677544,2,-1,-9,10,69,60,17,3
1619049040.6793637,4,3,11,13,-61,-10,0,1
1619049040.6827097,-9,-17,-52,-69,18,-26,-7,-4
1619049040.6845558,-5,-12,-29,-14,4,-6,-1,-3
1619049040.6871052,7,13,37,16,-2,-17,-3,4
1619049040.6889646,-1,-4,-18,9,11,-14,0,-2
1619049040.7016845,1,-3,-6,-47,11,16,3,2
1619049040.70358,5,2,-38,-19,-70,-27,-2,0
1619049040.7060797,-4,-5,-28,-34,-57,-27,-10,-2
1619049040.7079182,-11,-26,-87,-128,-59,-19,-10,-7
1619049040.7319367,13,33,110,124,62,15,5,7
1619049040.7340174,-4,-4,-7,-9,10,-8,-5,-1
1619049040.7368557,-2,-6,-18,-40,-32,20,4,-3
1619049040.7388642,4,4,2,19,-10,-18,3,7
1619049040.7427118,-7,-2,26,10,-2,6,-3,-7
1619049040.7445805,1,1,9,25,13,5,3,1
1619049040.7614238,-6,-6,-15,-38,-27,-29,-14,-7
1619049040.7633214,-5,-8,-2,8,4,-2,-2,-1
1619049040.7665946,-1,-3,-15,-28,-31,-3,0,-1
1619049040.768435,-1,4,14,11,47,5,-2,-4
1619049040.7709467,0,3,0,14,6,-4,-1,1
1619049040.7728145,1,0,2,66,81,57,14,0
1619049040.7759867,-12,-18,-42,-57,-101,-34,-15,-6
1619049040.777737,1,1,10,8,5,2,4,0
1619049040.8064654,-11,-24,-48,-75,3,10,-3,-6
1619049040.8084443,9,16,39,51,22,5,6,4
1619049040.8308153,5,-4,-30,-80,65,31,13,4
1619049040.8329186,9,25,82,105,-30,-6,3,4
1619049040.835483,-4,-2,1,-34,-58,-15,-7,-3
1619049040.837468,1,1,3,-4,-16,-9,-4,1
1619049040.8408563,2,1,1,-23,-11,7,-2,1
1619049040.842735,-11,-16,-47,-46,-18,-2,-3,-3
1619049040.84549,3,1,-7,7,22,-4,2,4
1619049040.8473246,14,25,60,-3,-70,-21,4,5
1619049040.8582406,1,4,14,33,-4,2,3,3
1619049040.8601613,-8,-15,-43,-78,-23,-18,-8,-5
1619049040.8632987,4,0,-7,23,3,-4,3,0
1619049040.8650784,2,-2,4,-15,-6,-2,-4,-2
1619049040.8889222,9,16,46,66,5,5,3,3
1619049040.8907983,-9,-13,-32,-15,15,6,-6,-6
1619049040.893923,5,7,7,24,27,14,8,2
1619049040.8957605,-3,-3,-13,-19,18,4,-4,-4
1619049040.8983703,4,7,13,29,5,-3,4,3
1619049040.9002306,-7,-4,-10,-9,5,2,-3,-5
1619049040.9193625,3,3,-1,-10,-2,-5,1,1
1619049040.9212294,-2,-8,-20,-16,6,-1,-1,0
1619049040.9237707,3,6,17,37,10,0,1,1
1619049040.9255815,-4,1,9,12,13,-3,-4,-4
1619049040.9287913,1,2,3,-16,-25,-7,1,3
1619049040.9306462,-1,-3,2,9,28,7,1,-1
1619049040.9498637,3,4,16,31,-8,0,1,0
1619049040.9517567,1,-3,6,-28,-2,7,-1,-2
1619049040.9549787,1,0,-1,11,51,7,2,1
1619049040.9568355,-2,-2,-6,3,-16,-3,-2,-2
1619049040.959379,0,1,3,14,28,17,4,0
1619049040.961203,1,-4,-9,-7,-24,-7,2,3
1619049040.9644644,-1,-4,-19,-19,-15,5,2,-1
1619049040.9662976,-1,2,22,52,46,15,-3,-5
1619049040.968732,-3,-2,-2,-22,-29,-17,-6,-3
1619049040.9705377,2,6,13,24,15,-6,-4,-1
1619049040.9868708,-1,-2,-5,-11,-16,-11,-3,0
1619049040.9887142,-1,-3,-8,-26,-22,6,2,-1
1619049040.9912617,1,0,3,-4,18,6,5,1
1619049040.993118,-1,-1,3,8,13,11,-1,-1
1619049040.996349,-1,1,-6,-6,-10,-7,-1,-2
1619049040.99833,-2,-1,-7,19,33,4,0,-1
1619049041.0074103,-1,-1,5,1,12,7,-4,-3
1619049041.0092492,5,7,8,53,48,12,9,3
1619049041.0164516,-5,-4,-16,-34,-15,3,-3,0
1619049041.018381,2,4,4,17,4,3,4,2
1619049041.0243702,-2,1,-1,-7,6,-5,0,-2
1619049041.026287,0,-1,6,16,8,4,1,0
1619049041.1377554,1,-4,-5,-11,-3,-1,0,-1
1619049041.13972,-3,-5,-4,-13,-6,-9,-4,-4
1619049041.142436,0,1,6,22,-11,-5,-1,-1
1619049041.1443837,-3,-6,-14,-46,-27,-17,-7,-1
1619049041.1527133,1,-1,4,14,11,1,2,2
1619049041.154759,-4,-2,-3,-13,-25,-6,-5,-3
1619049041.1572905,-2,-1,-4,-2,-9,-7,-2,1
1619049041.159126,-4,-2,-4,3,-9,-1,-2,-3
1619049041.1829762,-2,-2,-12,-4,-4,8,2,-1
1619049041.185205,-2,0,-8,1,0,-2,-4,-3
1619049041.1881382,-1,-1,0,2,1,1,0,0
1619049041.1903727,-2,-3,0,-3,-14,-5,-3,-3
1619049041.1975594,0,2,2,3,2,-7,-3,-1
1619049041.1997356,2,2,7,-5,-7,-12,-4,-1
1619049041.2027304,1,0,8,2,-1,-8,-3,-1
1619049041.2047138,-1,0,4,-2,-1,-2,0,0
1619049041.207968,-3,1,-7,1,-7,-4,-4,-1
1619049041.2098937,-2,-3,-7,2,2,-4,-5,-1
1619049041.2132523,-2,1,-6,-1,-4,3,0,-1
1619049041.2151353,-1,-2,-6,3,2,2,1,2
1619049041.2177963,-1,-2,-1,-6,-6,0,0,-2
1619049041.2197013,0,0,-2,-2,-3,3,0,-2
1619049041.2344344,-1,-5,-5,-6,0,3,2,0
1619049041.2364075,1,0,3,5,1,-3,-1,1
1619049041.239041,1,0,0,0,0,-1,-3,0
1619049041.2409341,-2,0,1,2,1,-4,-1,0
1619049041.273547,-1,1,6,1,0,1,-1,0
1619049041.2754912,1,1,3,4,2,1,1,0
1619049041.2781782,-1,-2,-3,1,-3,-5,-2,0
1619049041.2801764,-1,-2,-1,-2,-1,2,2,0
1619049041.4305246,-1,1,-1,1,0,-3,-1,-1
1619049041.4325902,-2,-3,-4,-1,-2,2,-1,-2
1619049041.4354753,-1,-1,-3,-1,-1,-3,-3,-2
1619049041.4374673,-2,-1,1,-3,-1,3,0,0
1619049041.4408941,-3,0,-2,0,-3,-3,-1,1
1619049041.4428964,0,-1,-1,0,0,-3,-1,-2
1619049041.4610746,-1,-2,-1,0,5,-1,-2,0
1619049041.4630375,-1,-3,-4,-3,0,2,1,0
1619049041.465728,-2,-1,-9,-4,-1,0,0,0
1619049041.4677343,-3,-2,-5,0,0,1,-2,0
1619049041.4899976,1,-4,-1,-3,-2,8,2,2
1619049041.4919703,0,0,0,0,0,-2,0,-1
1619049041.5045197,-2,-2,-5,-2,0,0,1,0
1619049041.5065331,-1,-3,-4,0,0,-1,-1,-1
1619049041.509989,2,2,-2,0,1,-2,-3,0
1619049041.5120068,-2,-2,-2,1,-2,-2,0,-3
1619049041.548854,-1,0,0,0,-1,-2,-1,-1
1619049041.5508854,0,0,3,3,-2,-4,-1,1
1619049041.5786312,-2,0,9,-1,-1,-2,-1,-1
1619049041.580647,-1,-1,2,0,0,-1,-2,0
1619049041.660946,-1,0,-4,1,-3,-2,-3,-1
1619049041.662952,-4,0,-4,-3,-1,-1,-3,-2
1619049041.7085173,-1,-1,8,1,-1,-5,-2,-3
1619049041.7105126,-2,-2,7,1,0,-1,0,1
