1619049613.4416423,6,6,0,-1,1,2,2,-1
1619049613.4454162,9,9,-4,-1,4,6,-10,0
1619049613.4482768,-14,-12,-1,-2,-9,-8,1,0
1619049613.4503903,1,1,0,-2,0,2,3,-1
1619049613.453157,12,13,-2,3,9,10,-7,2
1619049613.45519,-6,-6,-2,-3,-3,-6,-1,-2
1619049613.4578285,0,-3,1,1,-3,-3,5,-1
1619049613.4613383,7,10,-2,-1,6,7,-5,-2
1619049613.4642155,-5,-6,-4,-2,-3,-4,-3,1
1619049613.466388,-12,-12,0,-1,-10,-8,5,-1
1619049613.469897,6,6,-3,-1,3,1,-1,0
1619049613.4717784,1,2,-3,-1,-1,1,-5,0
1619049613.4742713,-8,-11,-1,-2,-7,-7,2,-2
1619049613.4763637,6,3,2,2,2,2,-1,-1
1619049613.47978,7,8,-1,-1,4,6,-6,1
1619049613.4815953,-6,-7,-2,-1,-5,-5,-1,-3
1619049613.4841335,-3,-1,0,-1,-4,-4,2,-1
1619049613.4859395,4,4,-1,1,5,4,-2,0
1619049613.4951465,-1,-2,0,-1,-1,-1,-2,-2
1619049613.4970121,-5,-6,2,0,-3,-6,3,-1
1619049613.5010662,0,0,-2,-1,2,2,0,-2
1619049613.502946,-1,1,-1,1,0,-1,0,1
1619049613.5163038,-5,-7,-1,0,-2,-3,0,-2
1619049613.5181577,0,-1,1,-1,0,-1,1,2
1619049613.5236998,1,1,0,0,0,0,-4,-2
1619049613.5254996,-2,-3,-1,-1,-2,-3,0,0
1619049613.5461917,1,-1,-1,-1,0,-1,-2,-3
1619049613.5481894,1,2,-3,0,0,1,-1,2
1619049613.5537956,-4,-5,-1,-2,-4,-2,1,0
1619049613.5557897,-2,-3,-1,-1,-2,-1,1,0
1619049613.5627682,-2,3,-1,-1,1,1,-1,-1
1619049613.5646105,-2,-2,-2,-1,-2,-2,-2,-3
1619049613.5671542,-6,-4,-1,0,-3,-7,-2,-2
1619049613.5689933,0,1,-1,0,-2,-1,-2,-1
1619049613.5845807,0,2,-1,0,-2,-1,-4,-1
1619049613.5864847,-1,-3,0,-1,-2,-2,-1,-1
1619049613.5889792,0,-1,-1,0,2,0,2,-1
1619049613.5908556,0,1,0,0,0,3,0,-3
1619049613.598952,-2,-4,0,0,1,-1,0,2
1619049613.6007965,-2,-1,0,-1,-1,-2,-1,-1
1619049613.603327,0,-1,-1,1,0,0,-3,0
1619049613.6050882,-2,-3,-3,-3,-3,-3,0,-1
1619049613.6220436,-3,-3,1,-1,-1,-1,1,-1
1619049613.6240528,1,-1,0,0,-2,-1,-1,-2
1619049613.6266866,-2,-2,-1,-1,-1,-2,-1,-1
1619049613.628533,-4,-3,-1,0,-1,-3,0,-2
1619049613.636384,1,2,-2,-1,-1,-1,-2,0
1619049613.638283,1,-1,-2,-1,-1,-1,-3,1
1619049613.6406877,-2,-1,0,-1,-2,-2,1,0
1619049613.6425245,-1,1,-1,0,-2,0,-3,-2
1619049613.6682332,-1,-1,-1,-2,-1,0,0,-1
1619049613.67037,-5,-2,-2,1,-1,-4,0,-1
1619049613.6730878,-2,-3,0,-3,-1,0,-1,-1
1619049613.675301,0,-1,1,2,2,1,0,1
1619049613.6826825,-2,-2,-2,-1,-2,-1,-2,-3
1619049613.684542,-3,-2,1,2,0,0,1,0
1619049613.6870682,-1,1,-2,-3,-2,0,-2,-1
1619049613.688874,0,1,-3,-3,-2,-2,-2,-2
1619049613.6960537,0,1,-1,-1,0,-1,0,-2
1619049613.6978748,-1,1,0,-2,-1,-1,-1,0
1619049613.7003603,2,0,-2,-1,1,-1,-2,-1
1619049613.7022667,-2,-3,0,-3,-1,-5,-1,-1
1619049613.7190993,-1,-2,1,-1,-3,-2,0,1
1619049613.720959,-1,-1,0,-2,-1,1,-1,-1
1619049613.7234883,-3,-4,1,1,-2,-2,-1,-1
1619049613.7254877,-2,-4,0,-1,-3,-1,-1,-1
1619049613.742297,0,-1,-1,-2,-2,-3,-1,0
1619049613.7442284,1,-1,0,0,0,-2,-4,-1
1619049613.748493,-2,-2,0,0,-4,-2,-1,0
1619049613.750485,1,1,0,0,2,4,1,-1
1619049613.7563777,-1,-1,-2,-1,-1,0,-4,-2
1619049613.758382,-3,-4,-1,-1,-4,-2,2,-3
1619049613.7609792,-1,-4,-1,0,-1,-2,2,-1
1619049613.762856,1,-2,-3,-1,0,-1,-2,-2
1619049613.7786644,-1,-4,-1,1,0,-2,0,1
1619049613.7805169,-2,-2,-1,-2,-1,-2,-1,-2
1619049613.783028,0,2,-1,0,-1,1,-1,-1
1619049613.7848756,-2,0,-1,-2,-3,-1,-1,0
1619049613.8025448,0,-2,0,1,-1,0,1,-2
1619049613.804395,-1,0,-1,-2,0,-1,-1,-1
1619049613.8069668,1,2,2,1,2,2,-1,1
1619049613.8088346,-1,0,1,-2,-3,-1,-2,0
1619049613.8164003,0,0,1,0,0,-1,-1,-1
1619049613.8182652,0,-2,-1,-2,0,1,-2,1
1619049613.8207417,-2,-3,-2,-2,-3,-3,-1,0
1619049613.8226006,0,-3,0,-2,-1,-3,0,-2
1619049613.8389325,-2,1,-2,-1,-4,0,-1,-2
1619049613.8407328,-1,-1,-1,0,1,0,-3,1
1619049613.8432755,-1,-1,-2,1,-1,-1,-2,0
1619049613.8451135,2,1,0,-1,0,-1,-1,0
1619049613.8635843,1,-1,-1,-2,0,-1,-1,-3
1619049613.8654232,-2,0,-2,-2,-3,-2,-1,-3
1619049613.8678908,-1,0,-1,-3,-2,0,-1,-2
1619049613.8696308,-1,-1,-1,0,0,-1,-1,0
1619049613.8764758,-2,-2,0,0,-3,-1,-1,0
1619049613.8783731,-2,-2,-1,0,-2,-2,2,-1
1619049613.8808706,1,1,-2,-1,-1,0,-1,-1
1619049613.88273,0,-2,-2,0,0,-1,0,-2
1619049613.8987403,-3,-3,-1,-1,-2,-2,-1,-1
1619049613.9006004,2,2,-1,0,-1,2,-1,-2
1619049613.903139,-1,0,-2,-1,-2,1,-1,0
1619049613.9049761,-2,-2,-1,0,0,-3,0,0
1619049613.922605,1,-1,-1,0,0,1,0,0
1619049613.9244735,-1,-1,0,-2,0,-2,-2,-1
1619049613.9270341,-3,-3,0,-2,0,-2,-1,-2
1619049613.9289362,-1,-2,-1,-2,-3,0,-1,-1
1619049613.9460511,1,1,-2,-2,1,-2,-2,-2
1619049613.9480388,-2,-2,-1,2,-1,-2,-3,0
1619049613.9507473,0,-2,0,0,-1,0,-2,-1
1619049613.952638,0,0,-2,0,-3,1,0,-1
1619049613.9595873,-1,2,-1,0,0,-2,0,0
1619049613.9614625,-2,0,0,0,-3,-3,1,-1
1619049613.9665089,-1,0,-1,-3,0,-3,-1,0
1619049613.968429,0,-1,-1,-2,1,-1,-3,1
1619049613.9821799,-3,-2,-1,-1,-2,-2,0,-1
1619049613.9841564,-3,-2,-1,-2,-3,-2,1,-1
1619049613.9866548,-2,-1,-1,0,-1,0,-1,0
1619049613.9884894,-1,-2,0,-1,-2,-2,0,0
1619049613.996119,-2,-2,0,-1,-3,-2,-3,0
1619049613.9979851,0,1,-1,-1,-1,2,-2,-2
1619049614.0004845,2,-2,-3,-1,-1,-1,-2,0
1619049614.0023735,-4,-1,-2,0,0,-2,-2,0
1619049614.0195131,1,-2,-1,-1,0,1,-1,0
1619049614.0213811,0,-1,-1,0,2,-1,-2,-1
1619049614.0265286,-4,-5,1,-1,-3,-2,0,-2
1619049614.0285378,-3,0,1,-1,-4,-3,1,-1
1619049614.042573,1,1,-2,-4,-2,-2,-3,-3
1619049614.0445826,-1,-1,-1,-1,1,-2,0,-2
1619049614.0471172,-2,0,-3,0,3,1,2,1
1619049614.0489597,0,-1,-1,-1,1,-8,-3,-1
1619049614.0562055,-1,-3,-1,-2,-2,4,1,0
1619049614.058071,-1,-2,-2,-2,-5,-8,-3,-2
1619049614.0635586,-1,0,1,0,-1,-3,0,-1
1619049614.0653157,3,2,0,3,-9,-20,-5,-2
1619049614.0784278,-3,-2,-1,0,-1,22,11,3
1619049614.0802774,-3,-5,-4,-13,-3,3,1,1
1619049614.0864952,2,3,13,28,13,10,1,1
1619049614.0883305,-3,-3,1,11,31,15,7,0
1619049614.1030712,-1,-2,-3,-11,-34,-32,-8,-3
1619049614.1049523,3,1,1,6,2,9,1,0
1619049614.1074345,2,-1,-9,-19,-2,4,-2,-1
1619049614.1093092,-6,-3,-3,9,21,13,3,-3
1619049614.115776,1,4,7,5,-7,5,0,1
1619049614.1176088,-2,-2,-1,-1,-9,-4,-1,0
1619049614.1319344,-3,-5,-13,-11,-2,-32,-6,-3
1619049614.1337843,5,10,20,29,3,22,1,1
1619049614.1492112,-9,-9,-11,-20,3,-13,-8,-6
1619049614.1511848,-3,-1,16,31,21,7,-4,-1
1619049614.1537075,-3,-3,0,3,0,5,1,0
1619049614.1555781,0,-6,-25,-72,-44,-15,1,0
1619049614.16936,5,7,12,57,27,7,-1,1
1619049614.1713953,-3,-4,-6,-27,-18,-2,0,-1
1619049614.1738157,2,-1,-18,-14,-9,-30,-8,-3
1619049614.175744,3,9,32,47,56,44,11,4
1619049614.1844475,0,-4,-6,-22,-24,-1,-4,-3
1619049614.1863685,4,0,-8,-12,-5,-20,3,3
1619049614.188823,1,-1,-13,-29,2,35,7,1
1619049614.1906335,-21,-23,-28,-42,-51,-72,-23,-15
1619049614.1989233,0,1,1,-7,7,21,6,1
1619049614.2007852,7,12,17,52,23,3,-2,2
1619049614.2032979,10,14,15,-7,-3,44,22,10
1619049614.2051396,1,-1,5,29,-6,-7,-7,0
1619049614.2210898,-3,-5,-8,4,34,14,0,-3
1619049614.222991,-1,-4,-25,-47,-42,-22,-6,-2
1619049614.2255154,-7,0,27,38,-19,-17,-6,-5
1619049614.2273295,9,8,3,21,48,2,3,5
1619049614.2358108,-10,-11,-7,-9,-44,5,-7,-9
1619049614.2376153,-6,-13,-25,-46,12,-9,-6,-4
1619049614.2437334,7,6,13,46,1,-10,0,3
1619049614.2455075,-5,-6,-12,-28,25,51,7,-5
1619049614.259729,4,5,-9,-34,-33,-20,10,5
1619049614.2615075,-8,-9,10,20,-24,-2,-1,-4
1619049614.2668328,0,-3,-17,0,70,64,10,-2
1619049614.268657,13,15,20,14,-3,-6,2,11
1619049614.2811556,-2,-1,22,44,-15,-10,-5,-5
1619049614.2830634,5,4,-14,-57,-1,38,13,3
1619049614.2855425,-19,-22,-13,15,-42,-51,-26,-15
1619049614.2874,6,4,-4,1,11,-15,-2,2
1619049614.3058817,-3,-6,-4,7,51,36,4,1
1619049614.3077424,-6,-9,-27,-40,-15,30,0,-5
1619049614.3103344,9,18,54,42,-21,-47,-13,2
1619049614.3121839,-10,-12,-16,-13,-4,-17,-3,-2
1619049614.3186634,11,21,31,59,75,28,12,6
1619049614.3205595,-9,-8,-13,-11,13,-40,-13,-8
1619049614.323072,3,6,6,10,13,29,11,4
1619049614.324917,-6,-3,13,38,-77,-29,-16,-10
1619049614.366042,-3,-7,-31,-60,62,-23,-3,6
1619049614.3680346,-11,-14,5,6,-34,8,1,-9
1619049614.3707478,5,2,-13,-9,43,45,15,3
1619049614.3727396,10,10,10,23,21,1,4,3
1619049614.3804717,-11,-14,-26,-38,-62,-33,-18,-11
1619049614.382987,12,21,44,89,22,-8,0,5
1619049614.3882751,-22,-27,-39,-70,-18,-62,-17,-11
1619049614.390122,8,8,-16,-25,39,38,12,1
1619049614.3936565,-3,-1,9,-36,-77,-16,-2,1
1619049614.3957353,-3,-2,4,42,36,50,19,2
1619049614.3984776,3,3,9,-20,-34,4,1,3
1619049614.4005165,2,5,27,66,49,-8,9,6
1619049614.4038694,-1,-5,-6,-21,9,3,0,-1
1619049614.4056332,-6,-6,-1,11,-72,-48,-20,-7
1619049614.4172454,4,0,-20,-33,17,4,5,0
1619049614.419119,-13,-15,-15,-13,-32,-6,-8,-7
1619049614.4256666,12,14,9,22,72,7,7,6
1619049614.427787,-13,-16,-38,-106,-26,-20,-3,-7
1619049614.431146,2,6,35,87,33,11,-6,1
1619049614.4330337,1,-1,11,5,-41,9,7,-1
1619049614.4471457,2,-1,-11,-12,4,-5,-3,-4
1619049614.448973,12,12,7,11,98,10,3,10
1619049614.4523194,-13,-8,2,13,-78,25,0,-8
1619049614.4541733,-7,-13,-41,-81,-28,-27,-3,-1
1619049614.4699283,10,7,-2,-5,1,49,19,9
1619049614.4718318,-2,2,22,49,-26,-34,-12,-3
1619049614.4755096,-4,-10,-24,-49,-30,-48,-13,-4
1619049614.4773777,2,1,-6,-43,-19,87,15,-1
1619049614.4845757,-24,-29,-19,-41,-95,-66,-31,-14
1619049614.4864838,-2,-4,0,-3,-19,-9,-2,0
1619049614.4998684,16,17,3,-6,79,13,16,10
1619049614.5017095,-25,-27,-19,-61,-128,-65,-31,-17
1619049614.5071342,10,17,41,104,111,25,13,6
1619049614.5089686,-4,-4,-7,-7,17,9,-4,-4
1619049614.5128946,5,5,6,12,26,-26,-7,2
1619049614.5148072,7,5,-16,-41,-9,18,21,10
1619049614.529512,-10,-10,-7,10,-46,-9,-11,-7
1619049614.53141,-2,2,33,94,29,-19,-19,-2
1619049614.5345724,9,11,4,-22,-5,29,15,4
1619049614.5363607,-10,-12,-16,-27,-50,-73,-25,-7
1619049614.5449867,12,17,31,75,32,37,15,8
1619049614.5468621,-1,-4,-19,-58,18,37,16,0
1619049614.5501158,-9,-7,-5,7,-23,-30,-12,-6
1619049614.5519612,2,2,2,-13,44,16,4,2
1619049614.5754347,8,11,12,36,79,28,6,4
1619049614.5775204,-1,2,1,-9,-48,8,13,0
1619049614.613231,-6,-9,-10,-22,-61,22,-4,-1
1619049614.6152453,9,10,16,43,63,21,12,5
1619049614.61792,-11,-17,-21,-46,-63,-39,-10,-6
1619049614.6198974,11,13,1,1,48,16,14,8
1619049614.623279,-12,-13,-12,-1,-15,11,-10,-10
1619049614.6253765,-7,-10,-5,-15,16,10,4,0
1619049614.6281557,-2,-5,-8,-20,-66,-20,-3,-1
1619049614.6300101,2,-1,-2,-1,-8,-18,-1,-1
1619049614.633298,-21,-26,-33,-85,-98,-56,-19,-13
1619049614.635112,4,9,23,68,44,1,-7,-2
1619049614.6429582,-4,-1,-9,-29,21,-8,-7,-3
1619049614.6448262,-6,-6,-25,-58,10,9,1,-1
1619049614.6502466,6,13,36,77,-4,-11,4,8
1619049614.6521065,-7,-6,-17,-58,-26,-16,-10,-5
1619049614.6546688,-15,-11,0,37,21,41,-7,-15
1619049614.6564648,15,16,21,42,6,-8,7,11
1619049614.6667604,-9,-10,-11,-23,-6,-64,-15,-5
1619049614.6686714,6,9,25,46,19,2,-7,0
1619049614.6712673,-3,-7,-32,-111,-45,-14,2,-2
1619049614.673105,0,0,8,4,-20,13,-5,2
1619049614.67637,7,10,14,43,105,32,4,-2
1619049614.6782992,11,12,-1,-6,23,54,18,7
1619049614.6954365,-18,-23,-23,-38,-29,-28,-8,-7
1619049614.6973274,-7,-7,-9,-18,-23,-27,-20,-8
1619049614.7193415,4,4,-9,-35,-6,1,1,3
1619049614.7212822,-8,-11,-17,-15,-19,-11,6,-1
1619049614.7326255,7,10,10,22,40,-1,7,7
1619049614.7345562,-13,-11,-6,-11,-29,-17,-4,-5
1619049614.7491899,-5,-4,-10,-20,-19,-10,-6,-3
1619049614.7510633,0,2,2,8,-41,-45,-14,-3
1619049614.7535543,-1,1,5,13,33,40,12,1
1619049614.7554302,-2,-1,2,18,54,-6,-9,-6
1619049614.7587407,3,2,3,-8,14,29,12,2
1619049614.7605817,-7,-11,-6,15,-2,-22,-10,-5
1619049614.763102,-3,-1,1,-9,-56,-13,-8,-4
1619049614.7649062,-1,-9,-16,-53,-44,-4,-1,1
1619049614.8003697,-5,-5,-1,6,-43,-21,-5,-3
1619049614.802399,2,3,6,16,-3,5,1,1
1619049614.8085132,-6,-8,-8,-10,15,61,16,-3
1619049614.8105607,1,1,2,-7,-35,16,1,2
1619049614.8132632,11,12,12,20,-10,-36,-8,3
1619049614.815123,-15,-19,-7,-11,-52,12,-15,-12
1619049614.8183324,4,0,-10,-22,7,3,8,3
1619049614.8201034,6,13,28,59,79,38,5,2
1619049614.8225102,-5,-4,3,-14,-11,0,4,0
1619049614.8243632,7,8,-4,-13,2,-2,7,4
1619049614.8275735,-5,-4,6,8,30,-16,1,-2
1619049614.829414,-12,-15,-17,-20,-11,-13,-12,-7
1619049614.8319066,4,4,-6,-12,5,-12,0,3
1619049614.8337681,5,8,15,47,67,23,4,0
1619049614.8446434,-4,-2,-5,-25,-35,-41,-15,-3
1619049614.846547,-3,-6,-8,-9,35,67,16,-2
1619049614.8594284,4,8,10,43,75,24,10,7
1619049614.8612893,1,0,-10,-20,-17,-3,4,0
1619049614.8645198,-8,-8,-1,-9,-41,-38,-20,-6
1619049614.866461,0,-3,-5,-17,-40,-36,-7,-2
1619049614.868916,9,6,0,-4,-31,11,6,6
1619049614.8707283,-2,-3,7,14,-8,46,11,0
1619049614.8976538,8,12,16,57,35,-9,1,3
1619049614.8996007,-10,-9,-23,-56,-27,-21,-3,-3
1619049614.9021363,-7,-14,-25,-79,-39,-15,-4,-6
1619049614.9039977,5,7,6,-1,-61,-62,-10,4
1619049614.907212,-8,-4,22,89,50,52,7,-6
1619049614.9090657,0,-3,-2,-7,-25,-20,-9,-2
1619049614.9121058,-2,-5,-9,-29,5,-16,-3,-2
1619049614.913946,-5,-1,2,11,14,-15,-4,-3
1619049614.9433155,-2,1,-2,-1,1,11,2,2
1619049614.945354,10,10,9,8,9,-14,8,8
1619049614.9480877,-4,-5,11,48,50,1,-16,-9
1619049614.950104,10,11,21,42,43,0,3,4
1619049614.953422,-3,-10,-32,-118,-90,-10,2,0
1619049614.9553044,10,13,24,79,82,23,6,5
1619049614.9577587,1,1,-3,-6,-36,7,-2,-1
1619049614.9596796,-6,-10,-25,-66,-18,1,-1,-4
1619049614.9791794,-3,-1,2,8,-11,-13,-8,-4
1619049614.9810407,0,0,1,0,-20,-1,-1,-1
1619049614.9956582,2,6,7,26,-9,6,7,1
1619049614.997518,-8,-9,-10,-18,10,16,2,-1
1619049615.000702,-1,-4,-5,-12,-33,-7,-4,-1
1619049615.0025804,0,2,-5,-7,23,19,4,0
1619049615.0050402,4,7,9,5,-19,-16,0,3
1619049615.0068772,-8,-8,-7,-5,10,24,7,-5
1619049615.010033,3,-2,-7,-31,10,-6,-6,-1
1619049615.01188,0,3,11,1,-47,-25,-3,0
1619049615.026437,-2,-4,0,5,4,-11,-4,-2
1619049615.028272,0,2,4,12,-6,-12,1,1
1619049615.0315275,-3,-7,-5,-28,-59,-12,3,-1
1619049615.0333643,-6,-5,19,62,-3,-17,-11,-6
1619049615.0358634,7,10,1,0,24,23,5,3
1619049615.0377054,-6,-10,-16,-54,-12,8,1,-2
1619049615.0407774,-1,-3,0,16,21,-16,-8,-2
1619049615.0426335,-8,-9,-18,-43,-18,-24,-13,-7
1619049615.0552385,4,4,2,-3,-11,-18,-12,-1
1619049615.057063,-4,-2,2,30,86,38,-3,-5
1619049615.0603797,-1,1,-5,-7,15,11,0,-1
1619049615.0622919,-2,-3,-2,-5,2,-9,-6,-2
1619049615.0772488,-7,-8,1,20,19,-17,-4,-4
1619049615.0791457,1,0,-8,-9,18,-3,0,-2
1619049615.0848842,-3,-6,-16,-41,8,22,2,-2
1619049615.0867634,-1,5,8,19,-40,-47,-10,-3
1619049615.0892596,-9,-10,-9,-5,15,17,1,-5
1619049615.091195,9,9,7,-4,-20,-40,4,8
1619049615.094441,-1,1,5,23,28,-6,-5,-3
1619049615.0962431,-5,-9,-20,-52,-66,-15,-2,-3
1619049615.1073136,-11,-13,-15,-44,-37,-15,-5,-6
1619049615.1091278,5,8,14,42,13,15,16,6
1619049615.1123648,-7,-3,-3,-7,-6,4,5,-3
1619049615.1142218,0,-4,-13,-9,57,34,6,0
1619049615.1377487,0,1,8,10,-49,-11,-4,0
1619049615.1396356,0,-3,-4,-12,-12,7,1,-2
1619049615.1429217,0,-1,-15,-34,-30,7,4,1
1619049615.1447718,4,7,14,23,-43,-17,-6,1
1619049615.1473193,-7,-7,-2,-1,-8,-20,-13,-4
1619049615.1491325,-6,-7,-24,-64,-39,-1,-5,-4
1619049615.1681626,10,11,17,40,9,30,6,5
1619049615.1700327,-2,-2,-6,-36,5,-1,-1,0
1619049615.1725273,2,-4,-14,-53,55,22,10,2
1619049615.174443,-10,-10,8,2,-106,-50,-14,-4
1619049615.177782,5,9,11,30,22,-14,-5,2
1619049615.179623,-2,-2,-8,-6,16,13,5,1
1619049615.2209482,-1,1,-2,6,4,35,16,1
1619049615.2230353,8,6,0,-7,22,-11,-6,2
1619049615.226515,-6,-2,11,46,24,14,6,-4
1619049615.2285209,-8,-12,-15,-26,-9,10,3,-2
1619049615.231217,0,3,3,8,-19,-15,-4,-2
1619049615.2330759,2,4,5,9,-22,5,1,-1
1619049615.23625,1,0,-1,8,19,15,4,1
1619049615.2379694,-2,-7,-5,-5,9,7,-1,-2
1619049615.240382,1,2,9,20,-12,-11,-8,-1
1619049615.2421584,-6,-2,9,40,-11,-19,-6,-3
1619049615.2575881,6,7,3,17,57,9,-3,3
1619049615.259593,-1,-2,6,32,69,72,23,2
1619049615.2642589,6,7,9,10,-33,-13,-6,2
1619049615.266111,-7,-16,-28,-63,-8,1,2,-4
1619049615.2817738,1,6,9,-20,-5,-11,-7,-2
1619049615.2836566,-6,-5,-10,-14,-34,-31,-16,-6
1619049615.2862284,-9,-11,-2,2,-50,-17,-2,-5
1619049615.2880962,4,3,2,23,21,-4,0,2
1619049615.2912936,-7,-7,3,-13,-9,-27,-6,-3
1619049615.293212,1,-1,-11,-31,-46,-29,-6,0
1619049615.2958696,9,12,18,55,70,25,12,2
1619049615.2976353,-3,-1,-6,-8,-8,-24,-19,-6
1619049615.3007922,0,-5,-10,-20,-32,10,5,1
1619049615.3026335,-1,1,0,1,-12,-27,-9,-2
1619049615.3087163,-2,-2,2,12,-5,-6,-7,-1
1619049615.310622,5,5,-9,-45,6,22,13,2
1619049615.3335001,-5,-4,13,48,-34,-19,-5,-1
1619049615.3353922,-3,-3,-2,-9,14,0,0,-5
1619049615.339171,2,-2,-20,-52,-32,-14,4,2
1619049615.340999,-2,2,21,60,49,30,-8,-3
1619049615.3550923,-2,-6,-19,-58,-21,-6,-2,0
1619049615.3569608,-10,-7,-3,-6,-72,-51,-18,-7
1619049615.3595135,-3,-2,1,23,84,28,-6,-5
1619049615.361594,3,4,14,33,-14,-42,-3,1
1619049615.3648565,-4,-10,-23,-46,-29,16,7,0
1619049615.3667684,4,8,16,39,-6,-31,-9,0
1619049615.3692648,-1,3,3,13,1,1,4,0
1619049615.371129,-12,-13,-13,-19,-56,-35,-13,-8
1619049615.3742974,2,0,0,8,30,6,-6,-1
1619049615.3761444,0,-3,-8,-31,-5,-3,7,2
1619049615.3840017,-12,-11,-19,-52,-42,-12,-11,-7
1619049615.385795,9,13,15,26,4,0,-2,4
1619049615.3907335,-11,-14,-14,-19,-43,-29,-10,-7
1619049615.3925972,4,9,21,64,97,57,13,4
1619049615.4156413,2,-1,-2,-8,-14,-6,-1,-1
1619049615.4176424,0,-4,2,6,-3,17,6,-1
1619049615.4210932,-2,-1,-8,-6,42,-3,0,-2
1619049615.4230218,5,7,-2,-10,22,13,6,4
1619049615.4534612,0,2,10,34,-3,13,0,0
1619049615.4555025,-4,-6,-11,-13,77,58,13,-1
1619049615.458836,8,9,20,44,51,14,6,3
1619049615.460831,-1,-2,-4,-18,-27,5,0,-3
1619049615.4633222,1,3,5,15,27,14,0,-1
1619049615.4651222,4,5,0,-8,9,-16,7,6
1619049615.4751058,-3,-8,-23,-51,-6,12,7,0
1619049615.47704,3,0,-6,-12,23,27,-1,2
1619049615.47961,2,4,11,18,-1,-40,-5,-1
1619049615.481465,-3,-4,-5,-18,-36,-23,-6,-3
1619049615.484695,-1,0,-2,21,83,23,11,-1
1619049615.486548,-2,-8,-9,-22,-62,-19,-5,-1
1619049615.4967208,0,-2,-5,-15,2,-3,4,2
1619049615.4986238,0,0,-3,-4,39,16,1,1
1619049615.5017855,4,7,2,7,-11,-7,-2,2
1619049615.5036347,0,2,9,13,-8,-5,6,1
1619049615.5061333,4,3,8,26,27,22,4,0
1619049615.5079987,4,8,10,13,2,30,11,2
1619049615.5277965,1,-3,-1,-24,-37,-25,-10,-1
1619049615.529651,-5,-8,-8,-16,-4,-13,-8,-8
1619049615.5322475,-2,-4,-10,-5,-1,50,21,-1
1619049615.53409,-9,-10,-10,-24,-14,8,-4,-3
1619049615.5372689,4,6,5,15,26,13,9,1
1619049615.539123,-5,-8,-2,0,-39,5,-7,-6
1619049615.5570776,3,-1,-6,-15,27,-12,12,5
1619049615.5590177,-5,-6,-4,-17,17,-19,-9,-4
1619049615.5622368,-7,-4,5,9,-70,-32,-4,-7
1619049615.5640845,-2,-2,-5,-10,-10,-23,-6,-2
1619049615.5793283,0,-1,-3,-15,6,27,4,0
1619049615.5811825,-4,-5,4,16,-24,-18,-4,0
1619049615.5844889,2,4,7,15,-7,-16,-10,-1
1619049615.586361,1,-2,-10,-26,-21,32,12,0
1619049615.5887496,-2,2,9,25,16,6,-7,-3
1619049615.590611,1,3,7,26,23,14,4,0
1619049615.5938582,-1,-3,1,6,0,6,-5,-3
1619049615.5956511,3,3,1,-5,4,-41,-8,3
1619049615.6098855,-6,-8,-8,-24,-63,-3,-8,-4
1619049615.6118932,-3,-5,-6,-1,-44,-4,-5,1
1619049615.640433,-7,-6,-5,-17,-24,-6,1,-2
1619049615.64244,0,3,5,36,44,2,4,-2
1619049615.645151,1,3,12,27,2,-33,-12,0
1619049615.6471317,2,-2,-8,-2,36,30,28,2
1619049615.6505017,-5,-5,-2,-13,-44,-59,-14,-1
1619049615.6523333,4,3,3,2,32,26,5,3
1619049615.6609182,2,2,-1,-11,21,3,2,-2
1619049615.662753,0,1,6,21,8,-30,-13,-4
1619049615.6717012,1,1,-6,-18,-54,-23,-15,-3
1619049615.6735628,-3,-3,-7,-12,-3,-11,-6,-2
1619049615.6761088,10,13,9,31,30,42,17,8
1619049615.6780071,-4,-5,-5,-25,-23,-22,-18,-4
1619049615.700189,5,4,-2,-3,41,28,22,5
1619049615.702066,3,4,2,7,55,53,15,5
1619049615.7226212,-5,-7,2,4,-11,-42,-12,-5
1619049615.7246273,3,1,-1,-6,-31,-1,-6,-2
1619049615.7311053,2,1,1,17,44,47,19,3
1619049615.7330832,0,0,1,21,6,-44,-18,-4
1619049615.7357063,-12,-16,-20,-52,-8,12,-6,-6
1619049615.7375515,9,15,28,59,73,7,-2,2
1619049615.7531965,-3,-3,-5,-7,-15,-29,-12,-4
1619049615.7551022,-3,-4,3,15,8,31,7,-3
1619049615.7575974,0,-2,-8,-19,-6,-33,-11,-1
1619049615.7595909,-6,-3,-6,-13,-11,-9,-10,-4
1619049615.762931,-4,-4,-3,-12,-23,-19,-12,-3
1619049615.7648034,-1,-2,-7,-6,51,14,9,2
1619049615.7752428,1,4,6,17,6,10,0,1
1619049615.777075,-6,-6,-8,-18,-9,-48,-9,-4
1619049615.7796006,-2,-1,5,6,-46,-15,-8,0
1619049615.7814565,-7,-11,-22,-49,-22,6,-3,-3
1619049615.7846398,-1,-3,-4,2,23,29,9,2
1619049615.78655,-3,-2,-1,-16,-11,-21,-7,-1
1619049615.8053868,-1,-2,-6,-26,2,8,-2,-4
1619049615.8072348,0,0,2,16,-4,-16,2,0
1619049615.810527,-1,-3,-4,-9,-9,15,-1,-2
1619049615.8123887,7,7,1,5,18,-8,2,3
1619049615.8149066,-7,-10,-10,-11,-22,-8,0,-2
1619049615.816761,1,1,4,3,0,12,3,2
1619049615.8273613,2,3,8,33,73,18,7,2
1619049615.829195,-5,-7,-9,-42,-51,-19,-2,-4
1619049615.8353293,5,6,11,52,14,-18,3,2
1619049615.837181,-2,-3,-2,10,2,29,12,0
1619049615.8404033,-5,-7,-11,-24,-24,-31,-1,0
1619049615.8422382,2,0,-3,-13,16,26,4,1
1619049615.8580055,-3,-1,1,-2,-44,-19,-7,-4
1619049615.8598235,-7,-9,5,15,-58,-44,-15,-4
1619049615.863049,3,8,5,6,8,22,11,2
1619049615.8648973,-2,-2,-1,4,27,26,-4,-4
1619049615.8872612,1,-3,-9,-22,11,-4,0,-1
1619049615.8891642,3,5,4,3,25,-7,-5,-2
1619049615.8944454,-2,-1,2,-1,-63,-22,-6,-4
1619049615.8963552,-8,-10,-6,-14,-76,-60,-14,-5
1619049615.9252892,6,4,-7,-33,18,10,1,0
1619049615.9274065,-8,-7,-3,13,5,7,9,-1
1619049615.9416704,-5,-7,0,10,6,-25,-11,-3
1619049615.9437687,0,1,4,9,-5,3,7,-1
1619049615.9465199,-5,-11,-28,-76,-17,-20,-14,-3
1619049615.9484932,12,22,38,92,30,15,5,5
1619049615.9517853,-4,-7,-15,-20,31,-3,9,-1
1619049615.953616,-3,-6,-10,-19,-20,29,2,0
1619049615.9560883,-5,1,14,45,5,-9,0,-2
1619049615.9579253,0,-2,-8,-36,-21,-4,-1,0
1619049615.9611135,1,2,2,9,3,14,9,1
1619049615.962973,-8,-10,-13,-30,-59,-15,-5,-5
1619049615.9690473,0,-2,-3,-25,-19,5,-3,0
1619049615.9709353,-6,-5,-6,-2,-30,-20,-7,-5
1619049615.9846487,9,7,12,27,23,5,8,7
1619049615.9865294,-1,0,0,7,15,-2,-10,-4
1619049616.0002089,0,-5,-3,-14,-20,9,0,0
1619049616.00204,-9,-9,-3,-8,-24,3,1,-2
1619049616.031116,-1,-3,-2,0,23,-6,-2,1
1619049616.0331056,2,-1,-2,-10,-10,-3,-2,-1
1619049616.036557,1,1,-3,-4,12,7,-3,2
1619049616.038613,0,0,9,6,-23,-18,1,0
1619049616.0411355,0,2,5,17,14,22,5,-1
1619049616.0432918,2,2,4,9,1,-2,-1,-1
1619049616.0466294,-3,-2,-1,12,-11,2,-5,-2
1619049616.0484421,3,3,-7,-38,22,8,6,5
1619049616.0524697,1,0,3,13,12,-4,0,-1
1619049616.054343,-3,-7,-14,-31,-13,-4,4,2
1619049616.0568547,1,3,3,0,19,-4,2,2
1619049616.0587826,-1,0,-3,-1,9,-9,-5,-3
1619049616.0620136,1,-4,-4,-9,7,5,1,-1
1619049616.0638602,2,4,5,32,21,-2,-4,-1
1619049616.0826323,-2,-3,-5,-10,-19,0,2,-1
1619049616.0844944,2,4,2,12,33,28,10,2
1619049616.1045487,-3,-3,-2,-9,-19,-15,-8,-3
1619049616.106456,-3,-3,-1,10,21,3,2,2
1619049616.1131177,-2,-4,-1,0,-12,-12,-6,-3
1619049616.1150038,0,0,-5,-12,-13,2,-1,-4
1619049616.1182027,-1,-2,3,11,-4,-3,-2,-2
1619049616.1200297,-1,-1,-6,4,30,-6,4,-2
1619049616.1225474,-1,3,1,15,-13,4,-4,-2
1619049616.1243513,-3,-2,-5,-14,0,2,-1,-1
1619049616.2027738,0,2,3,2,16,9,4,1
1619049616.2047632,3,3,-3,-14,-10,0,-2,0
1619049616.2780247,-7,-6,0,8,-39,-3,-3,-6
1619049616.2801027,-6,-5,-1,2,4,-10,-1,-2
1619049616.3920228,-1,-3,-4,-5,4,-1,3,3
1619049616.3941355,0,-4,1,0,-7,0,-4,-1
1619049616.396926,0,-2,-6,-10,9,4,2,0
1619049616.398914,-1,-3,-5,-20,-40,-7,1,1
1619049616.4132307,0,-1,4,15,19,7,5,-1
1619049616.415273,-2,-3,0,1,-17,14,-1,-2
1619049616.418635,2,2,1,-6,-1,-2,-3,-1
1619049616.420726,2,0,1,10,3,-5,-1,-1
1619049616.4237332,-3,-3,-5,-6,-7,-4,2,-1
1619049616.4260695,-1,1,-1,-1,5,3,0,-2
1619049616.4291174,1,3,1,0,2,2,-2,-2
1619049616.431298,0,-3,-2,-3,-4,-2,-4,1
1619049616.4510384,-3,0,-3,-1,-1,-2,1,1
1619049616.4530442,-1,0,-1,1,3,7,2,-2
1619049616.4557283,0,0,-2,1,0,1,2,0
1619049616.4576607,-2,-2,0,0,-1,-1,-1,-1
1619049616.480946,1,-2,-2,-1,0,2,1,0
1619049616.4829614,0,1,-2,1,0,-2,-1,1
1619049616.4856424,-1,-2,-2,-4,-3,1,2,1
1619049616.487594,-3,-2,0,2,-6,-2,-1,-1
1619049616.495899,1,1,-2,-3,-1,-3,-2,-2
1619049616.4978707,-1,-3,-2,-3,-1,-4,-1,-1
1619049616.500417,-2,-1,-1,0,-1,-1,0,0
1619049616.5023162,1,2,0,0,1,2,-3,0
1619049616.5274246,-1,0,1,0,-2,2,-1,0
1619049616.5307543,-2,0,-2,-2,0,0,-2,-1
1619049616.5349479,1,-1,-3,-1,-1,-3,0,-2
1619049616.5378191,1,-3,-1,-1,-1,-2,-3,-1
1619049616.5431998,-2,-2,-1,-2,-4,0,2,-1
1619049616.546214,-2,-1,0,-2,-2,-8,-3,-2
1619049616.5541291,0,-1,-1,0,0,2,1,0
1619049616.5560033,-1,-1,-1,-1,-2,-4,-1,-1
1619049616.5770485,-3,-4,-1,1,0,1,-1,0
1619049616.578595,3,1,2,-2,1,1,-2,0
1619049616.58565,0,-1,1,1,3,1,-5,-2
1619049616.5875077,-1,-3,-1,-2,-3,1,0,2
1619049616.5907438,-4,-3,-4,-3,-2,-5,-1,-2
1619049616.5926468,-4,-3,0,0,-2,0,-1,2
1619049616.5959358,0,-2,3,1,0,0,0,0
1619049616.5975394,1,1,-1,-1,0,1,-2,-2
1619049616.6077442,0,0,0,2,3,2,-2,-2
1619049616.6095607,0,2,2,2,-1,-1,-2,-1
1619049616.6127634,-4,-2,-1,-2,-2,-1,3,1
1619049616.6146488,-1,-5,-1,2,0,-1,0,-3
1619049616.6172526,-2,0,0,2,2,0,-2,0
1619049616.6191432,-2,-2,-4,-1,-1,-6,-3,-2
1619049616.6225746,-1,1,0,0,-3,-2,-2,-2
1619049616.6243422,-1,1,0,-1,1,1,-1,-1
1619049616.6291976,-1,-1,-2,-1,-3,-1,0,-2
1619049616.6311145,-1,-5,2,-1,0,-1,1,-1
1619049616.6430395,2,-2,1,-2,-1,0,-2,-1
1619049616.644935,1,0,-2,-2,-3,-2,-1,-1
1619049616.6591651,-3,-2,-3,-3,-4,-1,3,1
1619049616.6610816,-3,-2,-5,-2,-1,1,2,1
1619049616.6742907,-2,-1,-1,2,0,0,-4,-3
1619049616.6761703,-1,-4,-2,0,-1,-2,-1,-1
1619049616.6909304,-2,0,-1,-2,-3,-9,-2,-1
1619049616.6928117,1,3,-3,-1,4,7,1,0
1619049616.6961591,-2,0,-2,-1,1,2,-1,-2
1619049616.6980472,-3,-3,-2,-1,-3,-6,0,-2
1619049616.70051,2,3,0,-1,-1,-2,-5,-1
1619049616.7024367,0,1,0,0,-2,-1,0,-1
1619049616.7217734,-4,-4,-2,-2,-2,-3,0,-1
1619049616.7236798,-1,-2,-1,0,0,1,0,0
1619049616.7261114,0,-3,1,-3,1,0,-3,-2
1619049616.7280574,-1,-4,1,0,-2,-3,-1,-2
1619049616.7313218,-1,-1,-1,-3,-2,-3,0,-2
1619049616.7331684,0,2,-1,-3,-2,4,3,1
1619049616.7357018,0,-2,-2,0,0,0,-2,1
1619049616.7375493,-2,0,-1,-1,-1,-2,-2,0
1619049616.7417607,-1,3,0,0,-2,0,-1,1
1619049616.7437608,1,1,-2,-2,0,0,1,2
1619049616.7493517,-1,-5,0,-1,-1,1,2,-1
1619049616.7512476,-2,-2,-1,1,0,-4,0,-3
1619049616.7544532,-3,-3,-2,0,-1,-4,-2,-1
1619049616.7562845,-3,-1,-1,-3,-2,-2,-3,-2
1619049616.7885208,-2,-1,-3,-1,0,1,-2,-2
1619049616.7904315,1,0,-1,-3,-1,-1,-3,-1
1619049616.7936418,-2,0,-2,-2,-2,-1,-2,-1
1619049616.79561,-3,-2,-1,1,0,2,-1,0
1619049616.7981634,1,0,-1,-2,-1,0,0,-1
1619049616.8000088,0,0,-1,-1,-1,0,0,-2
1619049616.808803,-2,-3,-3,0,-2,-1,1,0
1619049616.8107948,-3,0,1,-1,0,-4,-3,-2
1619049616.8133209,0,0,-2,-2,-3,0,-1,-1
1619049616.8152418,-2,-3,-3,-6,-1,-2,0,0
1619049616.8337572,-2,-3,0,-1,2,-4,0,-1
1619049616.8356774,0,4,0,2,2,4,-4,-1
1619049616.8381217,-2,0,-2,-2,0,0,-1,1
1619049616.839909,0,-1,-1,0,-2,4,1,-1
1619049616.843157,3,1,0,-3,0,0,-1,-1
1619049616.8450232,3,-1,0,-1,1,-1,-1,0
1619049616.847541,-3,-2,1,1,-4,-2,-1,0
1619049616.8492923,-2,-2,-4,-4,-6,-2,-1,0
1619049616.8619134,1,1,1,1,0,1,-2,-2
1619049616.863755,1,-4,-2,-1,-2,-3,1,-1
1619049616.869926,0,-3,0,-2,-2,-2,2,-1
1619049616.8718152,0,2,-2,2,-1,-2,-1,-2
1619049616.8833878,-1,-2,-1,1,0,-2,-1,1
1619049616.8852668,-4,-3,0,-1,-1,-2,-2,-2
1619049616.892159,0,0,-1,-1,0,1,-1,-2
1619049616.8941147,0,1,2,0,1,0,-2,0
1619049616.8974078,-2,-3,-2,5,3,-1,0,-2
1619049616.8992407,0,2,0,1,-1,3,2,-2
1619049616.9145904,0,1,-3,-3,-1,-3,-2,0
1619049616.9165704,-3,-1,-1,-1,-3,-2,-1,0
1619049616.9197557,-2,-1,0,-1,-4,0,-1,0
1619049616.9215868,0,-2,1,-1,-2,2,-3,1
1619049616.9369395,-3,-1,-1,3,0,-1,-2,-2
1619049616.9388044,-3,-1,0,0,0,-3,-1,-2
1619049616.9420216,0,1,0,0,-3,-2,-2,-3
1619049616.9440668,0,1,-1,0,0,6,-2,1
1619049616.9521468,-1,-1,3,2,-1,-2,-2,-1
1619049616.9541082,-1,-3,-1,1,0,-2,0,0
1619049616.9572787,0,0,-1,0,-1,0,0,-1
1619049616.9591453,-1,-2,-1,-2,-2,-7,-1,-1
1619049616.9746299,-2,-2,-3,-2,-3,-2,1,1
1619049616.97651,0,-1,-2,-2,-1,1,-2,0
1619049616.9797888,-1,-1,0,-1,-2,-1,-2,-1
1619049616.981531,-1,-1,-1,-2,-2,-3,0,-2
1619049616.9974995,-1,2,-4,-2,1,2,0,1
1619049616.9994001,0,-2,0,0,0,-1,-4,-1
1619049617.0025945,-3,-1,-1,-4,-1,-2,0,0
1619049617.0044374,-2,-1,-1,0,1,-2,-4,-2
1619049617.0119889,-2,-1,-1,-2,1,1,-2,-2
1619049617.0137694,-3,-4,-2,-1,-3,-5,0,-2
1619049617.0176985,-2,-2,-2,-2,-3,-2,1,0
1619049617.0195308,0,0,-2,-2,-2,-1,-2,-2
1619049617.034312,-1,0,-1,0,-2,-1,-1,1
1619049617.036173,-3,-4,-3,0,1,0,0,-1
1619049617.0594525,1,2,-2,-1,0,1,1,1
1619049617.061493,-2,1,1,2,1,0,-2,1
1619049617.064143,1,-1,0,2,-2,0,1,-1
1619049617.0660267,0,-2,1,-2,-1,-1,0,0
1619049617.0692356,-2,-2,-3,-3,-1,-2,-4,0
1619049617.071101,-1,-3,-2,-1,-5,-6,0,-1
1619049617.0803213,-4,-1,-2,-3,-2,-2,-3,-1
1619049617.0821612,0,3,0,1,1,-3,0,-1
1619049617.0853698,-1,-1,1,1,2,-2,1,-2
1619049617.087273,-2,-5,-2,-2,-3,-2,0,0
1619049617.110912,0,1,-1,0,1,0,-1,-1
1619049617.1128745,-2,1,-3,-1,-1,2,-1,-1
1619049617.11638,-1,0,-2,0,-2,0,-1,-2
1619049617.118339,0,0,-1,-2,0,2,2,0
1619049617.1208224,1,-1,2,-2,-1,0,1,1
1619049617.1227067,-3,-4,2,-1,-2,-2,-3,-1
1619049617.1258824,-1,-4,-1,-1,-2,-2,-1,0
1619049617.1277742,0,0,-1,-2,-1,-1,-1,-1
1619049617.1404068,-3,-4,-2,-1,-2,-4,0,-1
1619049617.142361,-3,-1,-1,3,0,-3,1,-1
1619049617.1634462,2,1,0,0,1,4,-3,-3
1619049617.165286,0,2,-1,0,-3,-1,-3,-2
1619049617.167966,-2,-2,-2,-2,-2,-2,0,-1
1619049617.1697853,1,-1,-2,-1,0,-1,0,-1
1619049617.173036,-2,-3,-1,-1,0,-5,-2,0
1619049617.174876,-2,-3,0,4,-1,-2,2,-1
1619049617.177314,0,-2,0,-2,0,1,1,-1
1619049617.1792758,0,0,-3,-4,-3,2,-3,0
1619049617.1926765,-1,-3,-2,-2,-6,-1,-1,-1
1619049617.1946476,-3,-2,-4,-4,-2,-2,-2,-1
1619049617.1971607,2,2,-3,0,-2,-3,-3,-2
1619049617.1990416,-1,1,0,1,-2,1,-1,0
1619049617.2023337,-2,1,-2,-1,-1,1,1,1
1619049617.204194,-1,-2,-1,-2,-2,-6,-3,-2
1619049617.222032,-1,1,0,-1,-2,1,0,-1
1619049617.2242584,-2,-4,0,-3,-1,-6,-2,-1
1619049617.227572,-2,-4,1,0,-1,-3,-1,-2
1619049617.229446,1,-1,-1,-1,0,1,0,-1
1619049617.2319899,-4,-2,-2,-3,0,-2,-2,0
1619049617.2337976,0,-3,0,-3,-1,-1,1,-1
1619049617.2444363,1,1,0,0,1,1,-2,0
1619049617.2463381,1,0,-2,-1,-1,0,-1,1
1619049617.252716,-1,-3,-1,0,0,-3,0,-1
1619049617.2546144,0,2,-2,-2,1,-1,-2,-2
1619049617.2577848,-2,0,0,-1,1,-1,-2,-2
1619049617.2596638,-3,0,0,1,-1,-2,-1,-1
1619049617.27514,-2,0,-1,1,-3,-6,0,-2
1619049617.2770162,0,1,-1,-2,-2,2,-1,2
1619049617.2804928,-2,-3,-1,-1,-3,-2,-2,-1
1619049617.28247,0,1,-1,0,-1,-1,0,-1
1619049617.2974477,-1,-1,0,2,2,2,1,-2
1619049617.29932,1,1,2,0,0,-1,-1,-1
1619049617.3053827,-2,-1,-1,-2,-2,-1,0,1
1619049617.3073065,1,1,-1,3,3,3,0,-1
1619049617.3124273,-1,1,-3,-2,-1,2,-1,1
1619049617.3143485,-4,-2,-1,0,-3,0,0,-1
1619049617.336248,-1,-2,-1,-1,-2,0,-1,-3
1619049617.3382561,-1,-1,0,-3,-4,2,0,1
1619049617.340926,-2,-5,-1,-4,-3,-4,0,0
1619049617.3429167,-1,-2,-1,-2,2,-2,1,-1
1619049617.3461554,2,2,-1,-1,0,-2,-3,-2
1619049617.3479946,-3,0,-2,-2,0,-2,-2,-2
1619049617.3570213,-1,-2,1,-3,-2,-4,-1,-1
1619049617.3589582,2,-1,-2,-1,-1,1,-2,2
1619049617.3629065,-1,-1,-3,-3,-2,1,-1,2
1619049617.3647358,-3,-4,-2,-1,-1,0,0,1
1619049617.3726416,2,-1,-1,-1,-4,0,-1,-2
1619049617.3745425,-2,1,1,1,0,-1,-2,-3
1619049617.3871877,-1,-1,0,1,-1,-2,1,-1
1619049617.389042,-3,-2,-1,0,-1,0,-3,-2
1619049617.3951676,0,-2,0,-1,0,-1,-2,0
1619049617.3970249,-1,1,0,-3,1,6,0,0
1619049617.408775,-2,-2,-2,-2,1,1,1,-3
1619049617.41086,0,2,-1,-3,1,-2,-2,-1
1619049617.4135067,0,2,-1,0,2,2,-2,0
1619049617.415358,-1,-1,-2,-1,-3,-4,-3,-2
1619049617.4185987,1,-3,0,2,-2,4,3,0
1619049617.420473,-1,1,0,-2,-3,1,0,-1
1619049617.4403958,-2,-3,0,1,2,-3,-2,-3
1619049617.44228,-3,-4,-3,-2,-1,-3,2,-1
1619049617.4455423,2,1,0,-1,-4,-2,-2,-1
1619049617.447412,0,-2,-2,0,4,-1,0,0
1619049617.4543142,-2,-1,-2,0,-3,-1,1,0
1619049617.4562068,-1,0,0,-1,-2,-4,-1,0
1619049617.4711125,-1,-1,-1,-2,-2,-2,-3,-1
1619049617.4729595,-2,-4,1,-2,-6,-3,1,-3
1619049617.4755428,-2,0,1,0,-2,-2,-2,-2
1619049617.4776182,-1,-1,-1,-1,-2,-3,-2,-2
1619049617.491355,-4,-1,0,-4,-1,-5,-1,-1
1619049617.493448,1,-2,-1,-3,-3,-3,-1,0
1619049617.499285,-1,0,-1,-2,0,-1,-2,1
1619049617.5011418,-2,-3,-2,2,0,-2,-2,-2
1619049617.5053134,-2,-3,-2,-1,1,3,1,0
1619049617.5072527,2,1,0,1,-3,0,0,-1
1619049617.5229068,0,-2,-3,-4,-6,-4,0,-2
1619049617.5248852,0,-2,-1,-1,3,5,1,-2
1619049617.5281663,-1,-1,-2,-2,-2,-4,-2,-1
1619049617.5300562,-1,0,0,2,3,1,-3,-1
1619049617.5325503,-3,-4,-2,-1,2,-1,-1,-2
1619049617.534436,-3,-2,-1,-1,-5,-3,1,-2
1619049617.560568,2,-1,0,-1,2,0,0,0
1619049617.5625782,0,-2,-2,-4,-3,-3,-1,2
1619049617.565217,-1,-2,0,3,-1,-1,-2,-1
1619049617.5671053,1,2,-1,0,0,3,-1,1
1619049617.5703933,1,0,-1,1,-2,-6,-5,-3
1619049617.5722191,-2,-1,-2,-1,-2,-1,0,-2
1619049617.5828097,2,-1,-1,-3,-2,1,0,-2
1619049617.5846474,0,-2,-3,-1,4,-2,-2,0
1619049617.5885093,-3,-2,-2,0,-9,-1,-1,-1
1619049617.5904114,-5,-2,-1,0,1,-5,-1,-3
1619049617.5929065,2,2,0,3,5,10,2,-1
1619049617.594951,-1,-3,1,0,-1,-5,-2,-2
1619049617.6361387,0,2,3,1,1,3,1,-1
1619049617.6381128,2,0,-4,-1,-2,1,0,1
1619049617.6408043,-3,-3,-5,-4,0,0,0,0
1619049617.6427023,-2,-1,2,-2,-5,-1,-1,-1
1619049617.6469393,0,-1,-3,2,-1,-2,-3,-2
1619049617.6487703,0,-1,-1,-1,2,2,-1,0
1619049617.6512845,-2,-1,0,1,-5,-2,2,-1
1619049617.6530864,-3,-4,0,9,18,6,3,0
1619049617.656236,-1,-1,-3,-3,0,4,1,0
1619049617.6580474,0,-2,-1,-5,-9,-5,-2,-1
1619049617.6639435,2,2,1,3,2,-1,-2,-1
1619049617.6657417,0,-3,0,6,8,-1,-2,-3
1619049617.6792064,-2,0,0,-7,-1,4,1,0
1619049617.6810908,-3,-3,-1,-1,-9,-11,-4,-2
1619049617.686805,2,2,1,4,15,6,0,1
1619049617.6886837,-1,-1,-2,-10,-16,-2,-2,1
1619049617.691984,-2,-2,0,1,12,-4,-1,-2
1619049617.6938746,-1,-4,-1,-3,-3,1,2,3
1619049617.6965022,-2,-1,-3,-7,-10,-4,-5,0
1619049617.6984065,-3,2,-1,-3,-9,-4,-2,-1
1619049617.7016096,1,1,-4,-11,-17,-4,-2,0
1619049617.7034404,-1,0,4,10,22,3,0,-1
1619049617.7158358,1,1,1,-1,-7,-2,-1,-1
1619049617.7175918,-5,-7,-3,0,5,-3,-3,-4
1619049617.7246807,4,2,-3,-9,-10,-4,-1,1
1619049617.726523,-1,2,6,17,9,7,3,-1
1619049617.7480068,-1,-3,-3,-14,-39,-11,-2,-1
1619049617.749975,-4,-4,-2,-1,23,0,-3,-3
1619049617.7551804,0,0,3,5,11,2,-2,-1
1619049617.7570765,-1,2,-1,4,15,1,-3,-1
1619049617.7599688,-3,-2,-1,8,4,-2,-1,-3
1619049617.7620254,-2,-3,-12,-38,-59,-14,-5,-2
1619049617.769082,0,-2,0,7,53,6,-1,0
1619049617.7709653,2,-1,4,4,9,22,7,2
1619049617.7769234,-5,-6,0,3,-19,-11,-5,-3
1619049617.7788923,5,7,0,-3,10,4,2,4
1619049617.7821798,-10,-11,-2,0,-30,-19,-8,-8
1619049617.784041,3,-2,-2,3,30,7,0,0
1619049617.8003504,-1,-3,-1,-4,-19,-13,-4,0
1619049617.8022454,-4,-2,-1,-2,-45,-11,-3,-1
1619049617.805439,-1,0,-11,-27,-14,-6,1,0
1619049617.8073118,-2,-1,0,18,40,13,-2,-2
1619049617.8144128,1,-2,-11,-26,-6,5,-1,0
1619049617.8162928,12,15,47,78,16,6,5,4
1619049617.839489,-1,-3,-2,13,10,-2,-2,0
1619049617.8413734,-8,-5,-3,-11,-14,-1,-3,-5
1619049617.8438725,-1,2,-5,-8,17,-2,-1,0
1619049617.845765,-1,-2,-9,5,53,9,-3,-3
1619049617.8529692,2,1,4,-5,-40,-8,0,0
1619049617.8548834,-2,-4,-7,-29,-45,-10,-3,-2
1619049617.857288,-4,-4,-3,7,13,2,1,-2
1619049617.8590825,3,2,-4,-3,-8,-20,-5,0
1619049617.8622603,4,4,-2,8,34,44,13,6
1619049617.8640625,-3,-8,-10,-16,-46,-4,3,1
1619049617.8736901,1,6,3,-18,-11,-2,-1,0
1619049617.8755958,-3,-5,-10,-2,6,-8,-6,-2
1619049617.8826308,-13,-13,3,13,20,-4,-4,-8
1619049617.8844965,-6,-5,-26,-57,-53,-65,-20,-7
1619049617.9135857,6,11,13,53,71,46,10,1
1619049617.915654,10,10,13,18,22,73,27,11
1619049617.919113,0,-3,-5,-1,45,-15,-7,0
1619049617.921101,-1,-2,-6,-21,-41,-8,1,-5
1619049617.9236486,-12,-7,14,15,0,-4,-16,-9
1619049617.9254575,9,11,-4,22,70,21,8,6
1619049617.9432864,19,17,4,-19,90,75,24,13
1619049617.9451818,-3,2,17,38,-46,2,0,-1
1619049617.947841,0,-9,-21,-92,-106,-47,1,3
1619049617.949659,-8,-6,0,10,-36,-11,-10,-9
1619049617.9528651,1,1,-4,-17,36,-25,-12,-2
1619049617.9547176,-3,-1,2,8,-24,-29,-10,-5
1619049617.9721074,-12,-15,-11,10,30,15,3,-5
1619049617.9739532,2,-3,-17,-47,-42,-89,-12,2
1619049617.9771361,2,5,16,33,-71,35,15,3
1619049617.9790432,-8,-9,-3,-14,18,-1,-6,-4
1619049617.9875414,12,10,7,21,19,-1,-3,6
1619049617.9894211,-6,-9,-16,-31,23,5,1,-4
1619049617.996442,-7,-4,6,22,-93,-22,-5,-4
1619049617.9983358,6,10,15,27,36,21,5,2
1619049618.0008702,-1,3,4,15,14,-6,-1,-1
1619049618.0027702,3,-2,-15,-47,6,5,5,2
1619049618.0236983,-6,-6,14,25,-74,-72,-23,-1
1619049618.0255656,2,6,8,34,70,24,2,-5
1619049618.033036,-9,-11,-10,-35,-77,-20,-6,-8
1619049618.0349288,-3,-5,-2,-3,-32,-12,-7,4
1619049618.0381846,-6,-2,-3,-10,-30,3,-11,-18
1619049618.0400321,13,9,-4,14,70,21,4,8
1619049618.0426226,-4,-4,0,30,24,-2,-2,0
1619049618.0444233,-11,-5,-2,-12,-7,33,7,-3
1619049618.0477571,0,1,-6,-15,-31,-19,2,7
1619049618.0495124,-8,-10,-11,-5,-7,-16,-7,-4
1619049618.0545456,1,-2,-5,-6,-8,10,4,-1
1619049618.0563915,3,4,5,14,24,21,3,-2
1619049618.0595932,-9,-8,-10,-11,-7,-27,-11,-10
1619049618.0616488,3,3,-1,-1,39,32,8,5
1619049618.086033,3,1,-8,-6,31,18,6,2
1619049618.0879169,-8,-8,7,10,-91,-30,-18,-8
1619049618.0911386,0,-3,-26,-56,58,26,13,1
1619049618.092947,4,5,15,45,34,4,0,1
1619049618.0955057,-1,-1,4,-6,-15,5,1,1
1619049618.0972867,-3,-5,-3,-4,16,-4,-1,-3
1619049618.113686,-1,-3,-11,-13,27,0,-3,-1
1619049618.1156757,11,10,4,13,43,29,12,4
1619049618.1232507,-5,-6,-5,-32,-41,-52,-8,0
1619049618.1253958,5,5,1,5,60,11,5,3
1619049618.1298914,4,3,7,41,12,7,-4,0
1619049618.1321092,-2,-1,-1,-44,-43,-17,-2,1
1619049618.136855,9,7,8,33,13,7,2,3
1619049618.1388025,-9,-7,-7,-10,-28,-15,-8,-6
1619049618.142083,-1,5,7,8,-37,-38,-8,1
1619049618.1439002,-14,-18,-29,-69,-12,5,-10,-8
1619049618.1600528,4,10,23,60,37,1,2,-1
1619049618.1620815,-10,-11,-16,-53,-125,-29,-11,-6
1619049618.165763,-1,-5,-11,-38,8,-3,-7,0
1619049618.167607,-2,2,26,70,5,-8,-7,-4
1619049618.1895108,7,10,-1,-21,16,-9,3,7
1619049618.1915252,-5,-9,-13,-1,59,46,6,-4
1619049618.1950629,4,9,32,31,-50,-9,0,2
1619049618.1970034,2,-2,-11,-23,-9,20,13,1
1619049618.2055786,0,-1,-5,-11,-11,-12,-11,-1
1619049618.2074962,-3,-4,1,26,-37,-31,4,0
1619049618.2121053,-2,-2,0,9,53,23,0,-3
1619049618.2140064,6,5,2,16,67,-1,4,5
1619049618.216539,5,6,1,-6,-28,25,9,5
1619049618.2184684,-11,-12,-4,-18,-42,-16,-1,-8
1619049618.221656,6,1,-5,-16,-10,10,6,0
1619049618.223483,-16,-18,-14,0,-54,-34,-22,-10
1619049618.2426908,-3,-3,-2,3,20,7,0,-2
1619049618.2445707,10,15,10,46,72,-3,-4,1
1619049618.2492945,-6,-10,-21,-46,-26,-10,-4,-4
1619049618.2511747,7,12,13,1,-66,-1,14,6
1619049618.2568688,-9,-13,-4,1,21,22,-3,-3
1619049618.258771,-3,-2,10,36,51,15,0,-2
1619049618.2621245,-2,1,7,37,22,13,3,-2
1619049618.2640631,7,5,-10,-51,-46,-22,2,3
1619049618.2716548,-10,-8,5,16,-17,-26,-12,-10
1619049618.2735033,11,9,9,1,30,3,1,5
1619049618.3029253,5,3,-7,-13,-26,-39,-5,2
1619049618.304791,-17,-22,-5,16,28,41,16,-3
1619049618.3072991,4,6,-5,-14,-19,0,1,2
1619049618.309142,-9,-12,-13,-43,-6,3,-4,-6
1619049618.312437,3,4,15,61,69,-1,5,3
1619049618.3143468,-4,-5,-16,-41,-59,-8,-9,-4
1619049618.3168468,-3,-5,-5,11,18,10,-4,-3
1619049618.3186705,4,14,40,68,-6,-2,4,4
1619049618.324195,6,2,-18,-43,-15,6,9,6
1619049618.3260238,-8,-4,16,66,71,15,-7,-8
1619049618.3475327,-13,-14,-17,-57,-76,-24,-7,-5
1619049618.3493874,10,9,-6,-16,4,4,-2,3
1619049618.3551147,-1,2,9,31,46,29,1,-2
1619049618.3569884,3,4,-1,-29,-37,-8,0,4
1619049618.3594956,-1,-6,-6,-8,-25,-5,5,-3
1619049618.3613176,2,-1,-10,-19,24,-2,3,4
1619049618.3645096,-19,-16,6,18,-118,-16,-21,-16
1619049618.3663177,-3,-3,-12,-46,-1,11,1,-2
1619049618.3846874,16,18,16,32,41,18,10,7
1619049618.3866668,-2,-6,-19,-65,-39,-5,1,1
1619049618.389868,-10,-10,-7,-5,-16,-14,-5,-5
1619049618.3917136,7,6,-4,27,31,-6,1,4
1619049618.394165,6,9,8,6,21,-21,-8,-1
1619049618.396086,1,0,-2,-6,-20,5,3,-2
1619049618.4149833,-4,-6,-6,0,13,19,0,-2
1619049618.416836,-3,-6,0,-8,-33,-30,-6,-2
1619049618.4193447,-3,-6,-18,-51,-10,-19,-6,-1
1619049618.4211826,-2,-2,1,25,20,22,5,1
1619049618.4243138,0,1,15,30,33,-3,4,1
1619049618.4261744,0,-2,-7,-20,-22,-33,-16,-1
1619049618.4366286,-6,-5,0,4,7,44,12,-2
1619049618.438535,7,5,0,24,38,2,-2,0
1619049618.4416993,6,2,-1,-5,51,46,14,5
1619049618.4435482,4,9,21,55,-70,-27,-9,1
1619049618.4677122,-3,-7,-10,-13,74,56,26,4
1619049618.4695723,-7,-5,14,44,-22,-18,-14,-6
1619049618.4727385,4,3,-8,-33,16,-11,1,3
1619049618.4745376,-6,-8,-20,-37,-50,-23,-6,-4
1619049618.476949,16,26,37,87,85,35,6,9
1619049618.4788675,-8,-7,-6,-18,-33,-11,-11,-7
1619049618.4983127,8,7,5,18,-10,-19,-2,5
1619049618.5003111,-2,-5,-13,-45,-14,38,15,0
1619049618.5029354,-3,1,5,20,-23,-18,-16,-3
1619049618.504781,-2,-3,2,17,62,20,5,-1
1619049618.5079997,-2,-2,-2,-27,-47,-18,-2,0
1619049618.5097964,1,-1,-10,1,37,16,3,0
1619049618.5123203,-9,-7,8,28,-42,-45,-18,-7
1619049618.5141282,-1,0,8,8,-18,-27,-8,-2
1619049618.5191557,-8,-12,-25,-69,-53,-43,-10,-5
1619049618.5209901,10,16,31,79,20,-13,-3,4
1619049618.5353668,-11,-12,-3,22,-18,-9,-4,-7
1619049618.537227,14,11,-9,-39,-25,-17,2,6
1619049618.5403967,-10,-5,4,24,-10,-11,-12,-10
1619049618.54229,-2,-5,2,-5,65,-6,-2,0
1619049618.557449,-2,-6,-13,-52,-43,-21,-3,-3
1619049618.5593288,1,5,3,18,73,26,4,0
1619049618.562704,-9,-11,-16,-21,-6,-3,-5,-6
1619049618.5644975,1,5,18,37,39,-7,-3,-2
1619049618.5706272,-7,-8,-12,-22,-15,-2,-7,-4
1619049618.5725975,2,2,-3,-23,-30,-5,0,3
1619049618.5795128,-10,-8,-6,4,1,-11,-6,-5
1619049618.5813663,-3,-6,-8,-33,-62,-28,-8,-4
1619049618.5950625,7,6,6,35,52,12,8,6
1619049618.597,-8,-14,-19,-54,-70,-30,-4,-1
1619049618.6083305,-5,-2,2,16,-26,-11,-3,-4
1619049618.6102123,-15,-16,-14,-21,-80,-26,-14,-11
1619049618.6182501,3,0,-6,-20,31,33,8,0
1619049618.6201,-6,-9,-8,-19,-46,-4,8,-3
1619049618.6313126,4,3,1,-11,-26,-6,-4,4
1619049618.633191,-9,-7,-4,-6,68,15,-9,-8
1619049618.6356878,5,0,-16,-37,-3,3,4,3
1619049618.6374962,0,9,37,87,30,8,-2,-3
1619049618.6406493,11,9,-6,-28,-23,-11,4,5
1619049618.6424754,-9,-13,-17,-44,6,8,2,-3
1619049618.6627617,0,-3,-14,-21,0,-10,1,0
1619049618.664758,3,4,4,11,36,36,5,2
1619049618.6774817,-7,-7,8,19,-26,-8,-2,-1
1619049618.6795602,10,11,4,9,62,61,21,10
1619049618.6822376,-4,-7,-10,-17,-38,-10,-5,-3
1619049618.6840987,-4,-3,-7,-26,-26,-4,-6,-1
1619049618.6923277,6,7,11,35,60,25,5,7
1619049618.6942,3,1,-5,-22,-57,-24,-1,-9
1619049618.6967561,-3,-5,3,12,16,15,-1,0
1619049618.6985981,-6,-5,5,23,18,14,10,-4
1619049618.7141576,-1,-3,-15,-32,-11,4,-3,3
1619049618.716011,26,34,36,79,85,30,24,17
1619049618.7218766,-9,-8,-4,5,-27,-18,-14,-9
1619049618.7237103,-5,-9,-7,-34,-34,-7,-9,-4
1619049618.7269707,10,7,-1,-7,6,26,14,7
1619049618.728995,-11,-12,0,3,-34,-29,-9,-7
1619049618.744536,7,14,22,45,6,-16,-2,3
1619049618.746574,-16,-17,-22,-43,-49,-12,-5,-10
1619049618.7499359,8,5,2,-10,31,1,0,2
1619049618.7517612,-7,-11,-11,-31,-87,-40,-13,-6
1619049618.7542334,-5,-5,3,33,46,-5,-5,-3
1619049618.756079,0,-1,3,16,-6,-23,-11,-5
1619049618.7759876,-1,-6,1,-6,-9,16,4,-3
1619049618.7778184,6,5,2,21,2,22,9,8
1619049618.7803736,-2,-1,2,-9,-8,-20,0,3
1619049618.782261,-2,-2,-10,-7,1,-12,-8,-13
1619049618.7854168,0,7,24,64,43,27,8,1
1619049618.7872488,-5,-6,-14,-16,27,18,2,-2
1619049618.7972176,0,-1,-6,-32,-51,-4,-2,3
1619049618.7991407,6,10,-2,8,15,-13,1,6
1619049618.8028057,-2,-1,-6,-11,-13,-26,-7,-5
1619049618.8046458,-10,-13,-22,-48,-13,-13,-13,-6
1619049618.8271108,4,7,9,29,74,48,12,2
1619049618.829226,-7,-12,-11,-32,-41,-18,-8,-3
1619049618.8326683,7,4,0,10,8,60,8,-2
1619049618.8345623,1,1,1,-4,34,10,4,3
1619049618.837044,1,-4,-26,-89,-18,-15,-3,-2
1619049618.8389165,2,1,4,23,50,34,19,3
1619049618.8420577,-4,-1,3,15,34,-9,-8,-2
1619049618.843851,3,4,5,4,-18,-4,0,3
1619049618.8658805,2,0,-2,-33,-12,10,5,1
1619049618.8679147,1,-1,-2,18,28,-10,1,0
1619049618.8713875,-7,-7,-3,10,4,9,1,-4
1619049618.8732364,-1,-2,1,-5,-53,-20,-6,-3
1619049618.8800125,-3,-4,-5,9,0,-13,-6,-4
1619049618.8818626,2,4,10,15,15,2,-3,2
1619049618.8952641,-2,-3,-17,-37,-24,-15,-3,-2
1619049618.8971505,7,6,-4,-4,40,43,11,14
1619049618.9031906,-11,-4,5,12,-44,-34,-15,-19
1619049618.9050426,2,-1,-4,-10,-20,13,1,2
1619049618.9075735,-3,-1,-3,-6,31,14,5,0
1619049618.9093795,6,7,0,-8,3,10,3,3
1619049618.915966,-2,-2,-3,-1,16,0,8,5
1619049618.9177566,-1,-3,1,-1,-3,19,2,1
1619049618.9203253,-6,-8,-4,-24,-98,-64,-11,-6
1619049618.9221067,-6,-4,-5,-2,16,2,-3,-6
1619049618.9469054,-4,-5,-4,-4,0,38,5,-1
1619049618.9490397,-2,0,-2,-2,7,-10,-8,-3
1619049618.963566,10,10,5,8,38,27,13,7
1619049618.9655828,-8,-3,20,49,-49,-38,-16,-10
1619049618.969049,-1,2,5,17,39,-6,-7,-5
1619049618.971039,-2,-4,-8,-14,-1,-23,-7,2
1619049618.973633,-1,-5,-3,3,33,6,6,2
1619049618.9754035,-2,1,15,39,4,5,0,-4
1619049618.9858286,9,8,4,2,26,8,3,2
1619049618.9878044,-1,0,21,73,10,16,-2,-4
1619049618.9904346,-6,-8,-15,-31,1,-14,-9,-4
1619049618.9922903,11,8,-3,-17,-2,13,6,3
1619049619.023639,3,4,9,7,-9,3,-3,2
1619049619.0256348,-6,-4,-3,-9,-2,-6,-4,-2
1619049619.0283237,-1,2,4,10,7,-23,-9,-7
1619049619.0303266,5,4,2,9,26,27,10,4
1619049619.033643,-3,-5,-2,-5,-61,-3,4,1
1619049619.0355647,-5,-12,-30,-52,-39,1,7,0
1619049619.0382035,-2,6,25,51,21,6,-2,-1
1619049619.0400233,-5,-7,-10,-20,-5,-34,-9,-5
1619049619.053013,0,-3,-5,-2,-24,-18,4,1
1619049619.0548985,1,2,1,-14,8,11,-6,-3
1619049619.057376,-1,-1,-13,-22,1,15,0,-1
1619049619.0591974,-3,0,5,19,-26,-9,-3,-2
1619049619.0624664,-5,-4,8,33,39,32,5,-3
1619049619.064357,0,3,3,4,-10,-9,-2,0
1619049619.0834353,4,1,4,-4,41,13,-2,-3
1619049619.0854273,-4,-3,-1,1,40,16,7,-2
1619049619.088637,0,0,-14,-28,26,8,-5,2
1619049619.0905497,-3,2,4,15,-9,-30,-6,-12
1619049619.093034,-9,-13,-1,8,21,16,-3,-5
1619049619.0948987,6,2,-8,-38,9,-13,-2,2
1619049619.1116114,-3,-2,0,34,3,-3,0,0
1619049619.1135044,9,12,15,11,21,6,7,6
1619049619.1160214,-1,-1,-11,-31,-72,-33,-9,-3
1619049619.117826,1,3,14,50,25,-7,-4,-1
1619049619.1360667,-2,-1,-6,-26,-53,-45,-10,-4
1619049619.1378982,-1,-5,-12,-15,52,30,7,3
1619049619.1402934,8,12,22,40,1,-14,2,5
1619049619.1421058,-5,-8,-3,-14,-27,-13,-6,-2
1619049619.1452556,-6,-10,-8,-11,-19,9,1,-3
1619049619.1471536,3,6,-2,-3,-7,-9,0,4
1619049619.1496632,-3,-2,-3,-7,-25,-13,-5,-2
1619049619.151529,-5,-6,-7,-14,2,-15,-11,-6
1619049619.1657946,3,2,6,13,26,-21,-9,-1
1619049619.1676164,7,4,-5,-19,18,18,11,4
1619049619.1701095,-13,-15,-12,-17,-9,-3,-5,-10
1619049619.1719465,3,1,-6,-28,-26,-12,0,4
1619049619.1876633,7,15,31,46,30,-1,-3,-2
1619049619.1895232,-3,-8,-16,-77,-39,-13,0,3
1619049619.1920567,-1,-2,-10,-24,19,12,7,0
1619049619.193814,-2,0,1,-4,3,-2,-2,-6
1619049619.1970263,0,-3,-2,22,-21,25,4,0
1619049619.1988628,-5,-2,2,34,-1,5,4,-2
1619049619.2012544,2,5,13,56,53,19,2,1
1619049619.2031333,-10,-17,-30,-71,-27,0,2,-3
1619049619.218514,-4,-13,-35,-101,-59,-40,-6,-4
1619049619.2204843,6,8,22,45,-34,-13,-9,0
1619049619.2230358,-2,-6,-14,-38,-22,-1,-2,-4
1619049619.2248802,6,10,14,47,69,30,6,4
1619049619.2485118,-6,-12,-17,-32,-5,-22,1,0
1619049619.2506366,-4,-1,4,17,-40,-10,-6,-4
1619049619.2561607,0,1,-6,-34,-18,-19,-7,-2
1619049619.2582896,5,2,-9,-25,-25,-2,8,7
1619049619.2616227,-8,-5,11,59,34,4,-10,-11
1619049619.263579,-2,-8,-21,-65,-70,-32,-8,1
1619049619.2660851,2,5,11,33,49,27,3,1
1619049619.2679229,-2,-4,-12,-32,-41,-43,-12,-4
1619049619.276329,-5,-4,-6,-26,-44,-8,-5,-3
1619049619.2781851,0,2,3,10,35,38,8,-2
1619049619.2807386,-4,-3,2,28,19,-2,-4,-2
1619049619.282562,6,10,19,48,45,1,2,4
1619049619.3091757,1,3,4,1,-14,9,3,3
1619049619.3110578,-12,-16,-13,-30,-38,-16,-10,-9
1619049619.313678,6,9,1,2,-26,-3,7,5
1619049619.3156416,-12,-13,-6,1,-37,-16,-10,-8
1619049619.3188894,-1,2,10,23,22,0,1,0
1619049619.3207214,6,5,10,29,23,51,10,4
1619049619.3283205,-1,-2,-10,-20,10,-8,-5,-2
1619049619.33029,-9,-13,-8,-32,-91,-20,-10,-5
1619049619.3364124,9,13,20,62,104,35,13,6
1619049619.3383336,-3,-5,-4,-1,-43,-29,-13,-10
1619049619.3407936,-2,-5,-4,-11,3,6,-5,-2
1619049619.342673,9,8,-1,6,74,30,13,8
1619049619.369049,-11,-8,1,-22,-60,-8,-7,-19
1619049619.3709605,5,10,17,63,59,4,1,5
1619049619.3734434,-1,-2,-2,-10,-15,1,4,2
1619049619.3752618,7,7,2,-5,13,-4,1,4
1619049619.3910124,-1,1,6,18,19,49,6,2
1619049619.3929634,-3,-4,-8,-16,33,1,3,0
1619049619.3956113,2,3,6,3,12,-19,-2,1
1619049619.3974197,3,6,-2,-8,14,44,19,1
1619049619.406264,-5,-6,-3,3,17,-5,-8,-1
1619049619.4081488,0,-1,1,19,4,-16,-4,-2
1619049619.4109929,-8,-12,-21,-58,-34,7,2,-4
1619049619.4127243,3,5,16,52,6,2,4,0
1619049619.4275064,0,-2,-10,-29,-23,-3,-3,0
1619049619.429343,6,8,6,-5,6,-11,-2,5
1619049619.4319048,-11,-9,6,44,-17,14,-6,-9
1619049619.4337056,-1,-2,-1,-2,44,27,8,2
1619049619.4369004,-1,-3,-12,-35,-41,-52,-8,0
1619049619.438736,-9,-12,-18,-47,-47,-15,-4,-2
1619049619.4414308,7,9,11,31,50,34,7,3
1619049619.4432979,-5,-4,-1,-4,-20,15,2,-4
1619049619.456435,0,-4,-3,-3,-46,-23,-5,6
1619049619.4584017,-2,-2,-8,-23,30,7,3,-10
1619049619.4608881,8,7,4,9,25,3,7,5
1619049619.4628649,-2,-2,-14,-33,27,-2,-4,-2
1619049619.479396,8,10,16,30,4,-1,2,8
1619049619.481292,-4,-7,-11,-20,51,7,1,-1
1619049619.4946234,4,1,0,-10,-16,-48,-2,5
1619049619.4966688,-7,-9,-10,10,43,18,-10,-7
1619049619.5000024,-5,-3,-14,-22,1,8,3,-2
1619049619.5018039,-3,6,15,31,6,-20,-8,0
1619049619.5095167,-6,-5,-8,-29,-77,-45,-14,-7
1619049619.511397,1,-2,-2,4,-13,-31,-7,-4
1619049619.5246704,-2,-2,-5,-19,-10,4,-3,-5
1619049619.526561,4,2,2,9,41,19,9,3
1619049619.5290506,3,4,-5,-22,7,6,3,3
1619049619.530965,-7,-4,9,22,-58,-14,-8,-4
1619049619.5392797,5,5,8,21,36,4,3,3
1619049619.5411313,1,-2,-5,-17,-26,-13,1,6
1619049619.5546145,-5,-2,-1,-6,-9,4,-3,-12
1619049619.556481,-2,-3,5,6,-31,-18,-4,-3
1619049619.5596993,6,5,-11,-25,37,31,13,3
1619049619.5615532,-11,-9,-5,8,-29,-13,-14,-9
1619049619.5641372,3,1,5,16,-18,17,6,1
1619049619.5659719,2,3,7,33,76,32,7,-1
1619049619.5777192,5,8,4,-17,-28,-30,-7,0
1619049619.5795813,1,3,3,10,38,18,6,1
1619049619.582103,-11,-14,-9,-3,-15,-6,-9,-6
1619049619.5840106,-1,-2,-4,-14,-46,-16,-1,2
1619049619.5997794,-12,-15,-25,-52,-32,-12,-3,-10
1619049619.6017747,0,6,18,36,0,-2,1,-1
1619049619.606306,3,3,0,6,16,-22,-2,4
1619049619.6081946,4,4,-5,-20,-12,-6,-10,2
1619049619.6143718,-9,-11,0,12,-7,-19,-5,-6
1619049619.616227,0,-4,-8,-27,-80,-9,-5,-1
1619049619.6226327,-2,1,5,22,15,-10,-8,-4
1619049619.624505,-8,-4,2,-1,-3,-4,1,-5
1619049619.638408,4,0,-4,-1,23,-4,3,5
1619049619.6402702,5,1,2,16,42,3,-8,-2
1619049619.6443903,-1,1,7,12,-12,-33,-4,2
1619049619.6463547,-1,-3,-6,-2,32,28,12,3
1619049619.6587307,1,5,8,17,-10,4,-7,-3
1619049619.6605835,1,-4,-6,2,29,22,7,5
1619049619.6631668,1,3,-5,-8,11,22,5,-8
1619049619.665067,0,2,3,4,12,5,6,0
1619049619.6731315,-1,-10,-31,-70,-15,3,3,0
1619049619.6750665,-10,-7,16,20,-18,-4,-9,-2
1619049619.689893,1,0,-4,-23,-5,3,2,2
1619049619.6918085,-3,-2,-10,-26,-30,-32,-7,1
1619049619.7065842,5,9,16,40,5,19,4,4
1619049619.7084894,-10,-10,-17,-31,-27,-7,-2,-7
1619049619.7110126,4,7,8,16,17,13,4,2
1619049619.7128057,-1,-5,-4,-2,-39,-30,-8,-3
1619049619.719543,1,2,8,15,26,3,-1,-2
1619049619.7214086,16,10,-9,-42,-56,-10,2,12
1619049619.7238781,-21,-18,-8,-2,4,7,-9,-15
1619049619.7255964,7,1,-4,-4,45,10,7,5
1619049619.7425675,-5,-1,7,7,-52,-22,-3,-1
1619049619.7445123,1,2,1,-4,9,0,0,-1
1619049619.7470715,3,-3,-11,-9,-16,-5,3,6
1619049619.7488754,1,0,0,-3,-1,7,4,5
1619049619.7567477,-7,-2,6,17,18,-5,-8,-17
1619049619.7586725,-5,-2,-7,-18,-12,-7,-5,-3
1619049619.7716255,3,2,3,1,-1,8,3,4
1619049619.7736351,-1,0,5,16,20,-2,-7,-8
1619049619.787985,5,-1,5,21,21,12,1,11
1619049619.7898552,0,-2,-20,-49,-40,-2,8,0
1619049619.7923586,-5,-8,-6,-4,-32,-21,-10,-3
1619049619.794188,-4,1,7,20,-13,-7,-1,-3
1619049619.8022048,-5,-3,-5,-15,-11,-6,-5,-2
1619049619.80409,-6,-7,-10,-19,13,-2,1,-4
1619049619.806591,8,6,5,6,7,4,0,3
1619049619.8084807,-2,-2,0,-5,-23,-3,-6,-4
1619049619.8249133,-4,-4,-5,-5,-16,4,0,-3
1619049619.8267787,-1,1,4,20,28,0,-5,-2
1619049619.8292031,2,2,4,0,-1,6,-1,0
1619049619.831107,-6,-4,-3,-6,-13,1,-4,-4
1619049619.8394005,4,3,1,2,9,11,6,4
1619049619.841265,0,2,8,17,10,1,1,-1
1619049619.8544343,-3,-2,-3,-6,23,9,3,-1
1619049619.8563097,-2,0,2,4,-34,-18,-3,0
1619049619.8640993,-5,-5,-7,-2,-37,-15,-8,-1
1619049619.8659854,-3,0,3,12,-13,-1,-3,-4
1619049619.8934128,-1,0,-5,-12,-5,-2,1,0
1619049619.8954291,4,-2,-21,-60,5,3,-3,1
1619049619.8988998,-6,-5,3,6,-24,-10,-6,-4
1619049619.900869,0,2,10,27,18,-1,2,0
1619049619.9035168,-2,-5,2,15,18,11,-1,0
1619049619.9053695,-3,-4,-4,-9,-7,-3,-4,-2
1619049619.9173431,-1,-1,-7,-17,12,4,1,1
1619049619.9194329,-1,-2,4,12,0,-8,-5,-1
1619049619.9238408,0,0,-2,-1,-17,-6,-2,3
1619049619.9261436,-3,0,9,25,22,13,0,-3
1619049619.9293776,1,4,4,9,20,3,2,1
1619049619.9314609,0,2,-2,2,2,-1,0,0
1619049619.9358869,2,4,2,1,1,4,-1,-1
1619049619.9377306,-2,-3,-1,-1,-8,-1,0,-2
1619049620.142086,3,3,1,-2,19,4,5,3
1619049620.1440659,-4,-5,-10,-20,-10,-5,-3,-3
1619049620.1467772,0,3,11,31,15,1,4,1
1619049620.1489909,0,-2,-11,-28,6,1,2,0
1619049620.1636062,-7,-10,-12,-22,-37,-5,-4,-6
1619049620.1655722,9,12,18,51,53,15,6,3
1619049620.1684656,-5,-5,5,9,-25,-9,-2,-2
1619049620.1704907,-3,0,0,4,-11,-6,-5,-2
1619049620.2158272,-2,-1,0,1,5,1,-1,-1
1619049620.2178957,-2,-4,-3,-6,-10,-5,-1,0
1619049620.2207193,1,0,1,3,1,-3,-2,0
1619049620.2227938,-1,1,-2,0,1,3,-1,-1
1619049620.225433,2,2,2,1,5,-1,-9,-4
1619049620.22737,-3,0,1,2,0,-2,-1,-3
1619049620.2297783,-1,0,0,-3,-6,0,-1,-1
1619049620.2317028,3,-1,0,5,10,3,-1,-1
1619049620.234896,-2,1,-3,-3,-2,-2,3,2
1619049620.236701,-2,-3,-1,-2,-3,0,2,-2
1619049620.2392337,-1,-1,-1,-2,0,-1,0,0
1619049620.241059,-2,0,-1,-1,-4,0,-1,0
1619049620.2534208,0,-3,-1,-2,-3,-2,1,2
1619049620.2553265,1,2,0,-3,6,1,-2,1
1619049620.2577784,-1,-2,-2,-2,-20,-6,-4,-1
1619049620.2596,-3,-3,-1,5,13,2,-1,0
1619049620.275927,-2,-2,0,1,4,1,1,-2
1619049620.2777803,1,2,-2,-1,-2,1,0,-2
1619049620.2803164,-1,-4,-1,-1,0,-4,0,0
1619049620.2821362,-2,-1,-1,-1,-7,-1,-1,-2
1619049620.2853084,1,-1,-2,0,2,0,-2,-3
1619049620.2871997,-4,-2,-1,0,-2,-1,-3,-2
1619049620.3057213,-2,-2,1,2,2,-2,0,-1
1619049620.307551,2,1,-2,-5,-6,-2,-2,1
1619049620.310724,-1,-3,-5,-4,-4,-2,-1,-2
1619049620.3125765,-2,1,0,-2,-3,-3,-3,0
1619049620.315113,-1,1,3,5,7,3,1,-1
1619049620.3169262,0,0,0,-2,-1,2,0,0
1619049620.3274605,-3,-1,1,0,-2,0,-1,-1
1619049620.3292997,0,0,-1,1,0,-4,-4,-1
1619049620.335935,-1,1,-3,-5,0,-1,-1,-1
1619049620.3377726,-3,-4,-1,1,0,-2,0,-1
1619049620.340272,0,-3,-2,-3,-1,0,2,0
1619049620.3420749,0,0,-2,-3,-6,1,-1,-1
1619049620.3584783,-1,0,-2,-1,1,0,-2,0
1619049620.3603432,0,-1,-3,1,-2,-2,-1,-2
1619049620.363608,0,2,-2,-4,0,-2,-1,-1
1619049620.36549,-1,-2,0,-2,-1,1,-1,-2
1619049620.3679905,-3,-2,-3,-1,0,1,-2,-1
1619049620.3698196,-2,-1,0,-1,-1,1,-1,0
1619049620.3729606,-1,-3,-1,0,-2,-2,-2,-1
1619049620.3747807,-1,-3,-4,0,-3,-4,1,-1
1619049620.3772953,-1,-1,-1,-1,-4,-2,-2,-1
1619049620.3791766,2,-1,1,2,2,1,0,0
1619049620.409173,-1,1,0,2,6,-1,-3,-2
1619049620.4111147,0,-2,1,-2,-3,-2,0,1
1619049620.4252937,-1,2,-2,-1,0,2,0,-2
1619049620.4273489,0,-1,-3,-2,0,-3,-3,-2
1619049620.4410484,0,-4,-2,-3,-5,-3,1,-2
1619049620.4430692,-2,0,0,0,-2,0,-2,-2
1619049620.4457588,1,-2,1,4,4,0,-3,-1
1619049620.447736,-5,-1,-2,-2,-3,-5,-2,1
1619049620.4509661,-3,-3,1,1,-1,-2,-1,0
1619049620.4527903,1,-3,1,-3,-1,0,0,-1
1619049620.4553,0,-1,-3,-4,-3,2,4,-1
1619049620.4571059,-2,-3,0,-2,-3,-1,3,-3
1619049620.4595888,1,1,0,-2,0,1,-1,2
1619049620.4613645,-1,0,-1,0,1,0,-3,-4
1619049620.4707665,-2,-2,0,-3,-1,-2,0,-1
1619049620.4726374,1,-2,1,-3,-4,-1,-2,-1
1619049620.4759154,-1,1,-1,0,1,-1,-2,0
1619049620.477676,-3,-5,-2,-4,-7,-4,-1,-1
1619049620.480112,-2,0,1,-1,2,-3,0,-1
1619049620.4818974,-1,2,1,-2,-1,1,0,1
1619049620.4932485,-2,-1,-2,-1,-5,-1,-2,-2
1619049620.495139,-1,0,1,0,6,4,1,-1
1619049620.4976833,1,-1,-3,-1,-6,-2,-3,0
1619049620.4995906,1,1,-3,0,1,1,0,-2
1619049620.5028374,-2,-1,-3,-1,-1,-4,-2,2
1619049620.5046616,0,0,-3,-2,-2,-1,3,-1
1619049620.5071285,-2,-3,-4,-3,0,-1,0,0
1619049620.5089192,-2,-4,-1,-2,-1,-1,0,-3
1619049620.5286355,-3,-2,-3,-2,-3,-1,0,-1
1619049620.5305734,1,2,-2,-1,-3,-1,-2,-2
1619049620.5375586,-2,-1,-3,3,2,0,-2,-1
1619049620.5394363,-3,-1,-1,-1,-2,-3,-1,0
1619049620.552361,0,1,0,-2,3,-1,-1,-1
1619049620.5542705,1,0,-2,-1,0,-1,-3,0
1619049620.5567596,-1,-2,1,1,-2,-1,0,-1
1619049620.5586274,0,0,-1,0,0,-2,-2,-2
1619049620.5618043,-2,-1,0,-2,-3,-2,-1,-1
1619049620.5636811,-2,-2,-1,-2,-3,-2,1,-1
1619049620.5663066,-1,-1,0,-1,-1,-1,1,-1
1619049620.5681465,2,1,0,4,4,2,-1,-2
1619049620.5829258,-1,-1,-3,-2,-1,0,-1,-2
1619049620.584787,-2,-1,1,1,2,2,0,0
1619049620.5872896,1,1,-2,-3,0,0,-3,-1
1619049620.5890965,0,-1,0,-3,1,-2,-3,-2
1619049620.6133046,-1,-3,-3,0,-1,0,1,-2
1619049620.6153076,1,-1,-1,1,3,1,0,0
1619049620.618011,-2,0,-1,2,0,0,-4,-1
1619049620.6198177,-4,-3,-4,-2,-1,-4,0,0
1619049620.6358225,-2,-1,4,3,1,-1,1,-1
1619049620.6378055,1,0,-1,-1,-5,-1,-4,-1
1619049620.6404943,1,-2,0,0,1,-1,0,-1
1619049620.6424243,-2,-3,-3,-1,-4,-4,-1,-2
1619049620.6585772,2,1,-2,0,0,2,-1,0
1619049620.6604362,-1,0,-3,-1,0,-1,-1,-1
1619049620.66299,-4,-1,-1,0,1,-1,-1,-2
1619049620.664793,-1,-1,2,0,3,2,1,1
1619049620.6679122,2,0,0,-2,-4,-3,-4,-1
1619049620.6696515,-1,-3,1,0,-1,-3,-1,0
1619049620.6721444,0,0,-1,-3,-5,-5,0,-2
1619049620.6739721,1,0,-1,-3,2,4,0,0
1619049620.6885674,-2,-4,-4,1,-3,-2,0,-1
1619049620.6904125,-1,-1,0,1,5,1,0,-3
1619049620.6928449,3,0,1,-1,0,1,-1,0
1619049620.6947308,0,1,-2,-1,-2,-1,-3,-2
1619049620.7170467,-1,-2,1,-1,0,0,0,0
1619049620.7191596,1,0,0,-1,-2,-1,1,1
1619049620.721861,-2,0,1,2,0,1,-1,1
1619049620.7239213,-1,-3,0,1,-1,-3,-2,-1
1619049620.7272387,-3,-2,0,-2,-4,0,1,0
1619049620.7291086,0,0,-1,-2,-1,-2,0,0
1619049620.731682,-2,-3,0,0,-1,0,-2,0
1619049620.7334945,-1,-1,-2,0,-5,-3,0,1
1619049620.7485337,0,-1,0,1,3,-2,-2,-1
1619049620.7504377,1,0,-1,0,-1,0,-3,0
1619049620.7529674,1,-2,-3,-2,-2,-4,0,-2
1619049620.7548397,-2,1,1,0,0,0,0,-1
1619049620.7701833,0,0,0,0,3,3,1,0
1619049620.7720644,-3,-1,-2,-1,-5,-1,0,-1
1619049620.7745297,-2,0,-2,-1,-1,1,2,0
1619049620.7763815,0,-1,-2,-1,-1,-2,-2,0
1619049620.784889,-4,-3,-3,0,-2,-4,-2,-3
1619049620.7867973,-4,-3,-2,-1,0,-2,0,0
1619049620.7893376,-1,-1,-2,3,3,0,-4,-2
1619049620.7912354,0,1,0,0,-3,-1,-1,-3
1619049620.7989254,-2,-1,1,-2,-1,-3,-2,-1
1619049620.8007846,1,-1,-2,-1,-1,-1,1,0
1619049620.8033206,-2,0,0,-2,-2,-1,-3,-2
1619049620.8051486,-3,-5,-2,-2,-6,0,0,1
1619049620.8218222,-2,-3,-1,2,8,0,2,0
1619049620.8236606,-2,-2,0,-1,-5,-2,-1,0
1619049620.8261101,-2,-3,0,0,0,0,2,0
1619049620.827952,-1,-2,0,-2,0,0,0,-2
1619049620.845082,-1,2,-2,-3,-4,1,0,0
1619049620.84716,1,-1,-1,-1,3,0,-3,0
1619049620.8517132,-1,-1,-2,-1,-2,-2,1,0
1619049620.8537261,1,1,-1,0,-2,-1,-1,-1
1619049620.8589377,0,-2,0,-1,-1,-4,-3,-2
1619049620.8608124,-3,-1,-1,-1,0,-4,-1,-2
1619049620.8632915,-3,-3,1,-2,-3,-3,2,0
1619049620.8651047,1,-1,-1,-1,1,0,-1,1
1619049620.8824122,0,-2,-2,-4,-3,-2,0,0
1619049620.884331,-2,-1,0,0,-3,-2,0,-2
1619049620.8869977,0,2,-1,-1,-2,1,-2,-2
1619049620.888879,-1,-2,-2,1,4,2,0,0
1619049620.9120781,-4,-1,0,-3,-4,-3,-1,-1
1619049620.914035,3,2,0,0,2,4,-2,-2
1619049620.9164987,3,-2,-1,-1,1,0,-1,0
1619049620.9181952,-3,-5,-2,0,-2,-4,0,-1
1619049620.9211667,-1,-5,-9,-13,-9,-4,-1,-1
1619049620.9228745,1,3,2,11,3,0,-2,0
1619049620.925205,-4,-1,-3,-4,-2,-2,-2,-1
1619049620.926965,-2,-1,3,-2,-2,-2,0,1
1619049620.9657874,2,1,-1,0,0,2,-2,-1
1619049620.96787,-1,-4,-1,0,2,2,-3,1
1619049620.970554,0,-3,-4,-8,-2,-1,0,-1
1619049620.9723747,1,2,4,13,3,1,-2,-1
1619049620.9754307,-1,2,-5,-9,-2,1,-1,1
1619049620.9771326,-3,-3,-1,-4,-4,-3,2,-2
1619049620.9794488,0,-1,-2,-5,-4,-1,-1,-2
1619049620.981265,-1,-1,-5,-1,2,1,-2,-3
1619049620.9946573,-2,-1,11,14,-1,0,0,-1
1619049620.9963686,-2,-4,-3,-1,0,-2,0,-1
1619049620.9988449,1,2,3,4,1,0,-2,-1
1619049621.0005257,0,0,-5,-10,-5,-2,-3,0
1619049621.0090473,0,0,1,2,0,0,0,-1
1619049621.010799,1,1,0,-3,-3,-3,-1,1
1619049621.025699,-2,-2,-6,-6,-2,-2,-2,-1
1619049621.0274734,0,1,-1,-1,-1,-1,-1,-1
1619049621.0305479,-3,-1,-2,-2,-6,-1,-1,-1
1619049621.0323215,0,-2,-2,-5,-1,1,-1,0
1619049621.0346532,-1,-2,-1,3,1,0,-2,0
1619049621.0363374,-3,-4,0,-2,-2,-2,-1,-1
1619049621.048428,2,-1,-1,0,0,1,0,-1
1619049621.0501513,-3,0,-3,-3,3,2,0,-2
1619049621.052504,-2,-2,-1,2,-1,-4,-2,0
1619049621.0542483,3,0,-2,-1,-2,1,0,-1
1619049621.0639312,-1,1,-4,-2,-1,-1,-3,-1
1619049621.0657332,-2,-4,-2,-2,-4,-2,0,-2
1619049621.0681114,0,-1,3,3,1,0,1,-2
1619049621.0697787,1,-1,-1,-1,-1,1,-2,0
1619049621.0850804,-2,-6,-1,0,-1,-2,-2,-4
1619049621.0870068,-2,-2,-1,-5,-8,-4,0,-2
1619049621.0894032,-1,0,1,4,7,4,-1,0
1619049621.0911226,-3,0,-2,-2,-1,-4,-2,-3
1619049621.0986934,1,-2,0,0,1,1,0,0
1619049621.1004114,0,2,0,-2,-3,0,-2,-2
1619049621.1064205,-1,2,-1,-3,-4,-3,-1,-2
1619049621.1081393,-1,-2,1,0,0,-4,0,0
1619049621.1301415,-1,0,0,2,2,0,1,-2
1619049621.1320686,0,-1,-1,-2,-1,-2,-2,0
1619049621.1352458,-3,-2,0,0,-3,-5,-2,-2
1619049621.1369317,-1,-4,-2,-3,-1,0,1,-1
1619049621.1446319,-1,1,1,0,0,-1,-3,2
1619049621.1463587,-3,-2,0,1,3,-1,-1,-1
1619049621.1586258,0,0,-2,0,-1,-1,0,-1
1619049621.1603775,-1,1,-1,-1,-4,-1,-2,-1
1619049621.167244,1,0,-1,-2,0,0,0,0
1619049621.1689339,0,-3,-2,-1,-4,-1,0,1
1619049621.1810703,-1,0,-2,-1,-1,0,0,-2
1619049621.1828218,0,-2,0,2,-2,-1,-4,-1
1619049621.1908462,-3,-3,-2,-1,-1,-3,0,-2
1619049621.1925666,-2,-2,-1,-2,-2,-1,0,0
1619049621.195658,-1,-1,-2,1,-1,0,-1,0
1619049621.197383,-2,-3,-1,-1,0,-3,0,0
1619049621.2043843,-1,-2,0,-1,-2,-3,-2,0
1619049621.2060957,1,0,-1,1,8,2,-1,-1
1619049621.2128506,1,-1,-1,-2,-2,0,0,-2
1619049621.2147658,-4,-3,-5,-2,-2,-2,0,-2
1619049621.2267785,2,-2,-1,0,-1,1,0,-1
1619049621.2284882,0,0,-2,0,-3,-2,-2,0
1619049621.24428,-5,-2,-1,0,1,-2,-1,1
1619049621.2461534,-2,-2,-1,0,-1,-1,-1,-1
1619049621.2488112,-1,2,-1,-2,-2,-2,0,-2
1619049621.25051,0,-1,0,1,-2,-3,-2,-4
1619049621.2732558,0,-2,-1,-1,-3,0,-1,0
1619049621.2749982,0,3,2,0,4,-1,-1,0
1619049621.277465,-1,1,-1,0,-2,-1,-3,0
1619049621.2791603,-3,-2,-1,-2,-2,0,1,1
1619049621.2823527,-2,0,0,1,-1,0,-1,-2
1619049621.2840335,0,1,-1,-2,-2,-1,-2,-1
1619049621.2863803,-3,-5,-4,0,2,-1,0,-2
1619049621.2880528,-2,-3,-1,-1,-1,-2,-1,-1
1619049621.2946424,1,0,0,-3,-3,0,0,-1
1619049621.2963445,-2,-4,-3,-1,0,0,0,0
1619049621.302491,0,-1,-2,-3,-1,-2,1,-1
1619049621.304195,-1,0,0,1,-1,-2,0,-1
1619049621.3077736,0,-2,-2,-2,-1,-1,0,-1
1619049621.3094494,0,-3,0,-1,0,0,2,-1
1619049621.325429,0,2,1,1,2,2,2,1
1619049621.3271942,-2,1,0,0,-3,-2,-1,0
1619049621.330218,-4,-2,-2,-3,-3,-1,-2,1
1619049621.3320432,-2,-1,-2,-1,-3,-1,1,-1
1619049621.3545976,1,1,0,3,4,1,-2,1
1619049621.3563101,-1,-3,-3,-2,-2,0,1,1
1619049621.3593566,1,-2,-1,-2,-2,-2,0,0
1619049621.361063,2,4,1,4,7,4,0,-2
1619049621.363387,-2,1,-2,-2,-7,-2,-2,0
1619049621.3651822,-2,-2,-4,-1,0,-1,-2,0
1619049621.3681958,0,0,-1,-2,-1,1,0,-1
1619049621.369896,-2,-1,-1,0,0,-1,-1,-3
1619049621.3854804,0,0,-1,-2,-2,-5,0,-3
1619049621.3872283,-3,-3,0,0,-1,-3,-2,-5
1619049621.3902698,2,-2,-7,-13,-6,-3,-3,-1
1619049621.3919544,-1,-1,-1,5,0,0,-2,0
1619049621.407525,-4,-2,2,-1,-2,-7,-3,0
1619049621.4092324,0,-2,-12,-9,-2,5,-1,-2
1619049621.412587,8,17,45,53,22,11,2,2
1619049621.4145026,-2,-5,-11,-20,-12,-23,-6,-3
1619049621.4208887,-1,-3,-5,-7,3,24,5,2
1619049621.4226072,0,-3,-1,-4,2,0,-3,-3
1619049621.4452667,-3,-8,-8,-9,5,7,3,0
1619049621.4471657,-4,-4,-10,-32,-39,-30,-8,-1
1619049621.4496677,2,2,-5,5,32,17,2,-2
1619049621.4513793,-6,-4,9,12,-24,-18,-6,-4
1619049621.454394,-3,-3,-13,-15,4,11,6,-2
1619049621.4560769,2,2,7,9,7,-8,-8,0
1619049621.4584057,5,2,-15,-36,-24,3,3,2
1619049621.460108,-3,-1,12,28,10,11,0,-1
1619049621.4676511,-7,-10,-17,-31,-19,-23,-9,-2
1619049621.4693487,3,3,-13,-20,-4,15,3,0
1619049621.4892855,0,11,43,74,49,18,11,3
1619049621.491022,0,-3,-6,-16,-10,-34,-4,-2
1619049621.4940968,-2,-3,-7,-11,-8,40,4,-1
1619049621.4957824,-5,-8,-14,-27,-11,-28,-11,-5
1619049621.5203304,-3,0,24,61,11,-18,-11,-4
1619049621.5223176,0,5,14,60,65,28,10,3
1619049621.5257657,-3,-6,-33,-68,-42,-33,-8,-4
1619049621.527781,1,8,31,53,26,27,6,2
1619049621.530407,0,-3,-11,-17,-4,-7,-6,-3
1619049621.5323112,4,3,1,-8,-16,-4,-1,0
1619049621.5357816,-11,-12,-17,-12,-17,-31,-8,-7
1619049621.5376105,0,-1,-3,-12,-2,15,9,0
1619049621.557098,2,3,-1,0,3,1,0,4
1619049621.5590742,-10,-12,-9,-34,-84,-66,-23,-8
1619049621.5623753,2,4,0,-13,13,54,19,4
1619049621.5642169,-6,-3,17,65,45,-2,-8,-2
1619049621.5668008,7,1,-14,-43,-21,7,7,2
1619049621.568651,-4,-1,3,1,8,0,-2,-4
1619049621.5784404,6,8,12,30,15,-14,-10,0
1619049621.58024,3,4,2,-9,-21,13,5,1
1619049621.582854,1,3,16,50,36,-5,0,3
1619049621.5846932,-1,-5,-23,-40,13,44,14,2
1619049621.6040688,0,3,10,8,-5,-18,-6,0
1619049621.605979,-2,-4,-3,1,22,5,2,0
1619049621.6084776,-13,-16,-11,27,50,46,-9,-13
1619049621.6103992,5,2,-10,-35,-51,-31,-1,4
1619049621.63446,1,3,5,0,11,-5,-3,2
1619049621.636507,2,-1,-4,-18,-16,1,3,-1
1619049621.6391745,5,9,3,-4,44,19,9,3
1619049621.64091,4,7,21,61,61,1,-9,1
1619049621.6476595,-7,-13,-28,-72,-87,5,5,-2
1619049621.6494687,-5,-3,-3,3,-38,-42,-17,-6
1619049621.6518438,-1,6,22,55,38,-2,-1,-5
1619049621.6535234,5,3,-8,-42,-32,-30,0,5
1619049621.6638792,-3,-4,4,29,43,28,8,-2
1619049621.665674,5,4,3,-15,-12,8,-5,1
1619049621.668036,-10,-15,-29,-50,-53,-6,-3,-2
1619049621.6697042,-1,1,2,4,-28,2,2,-3
1619049621.6727428,-7,-2,8,21,-4,-26,-15,-7
1619049621.6744444,-1,-1,-17,-26,32,-9,-2,-2
1619049621.6921296,-7,-11,-12,-32,-59,-21,-2,2
1619049621.693863,3,3,-2,-26,23,63,13,4
1619049621.6968722,14,20,40,101,62,0,1,6
1619049621.698694,-3,1,6,0,11,-2,5,0
1619049621.7307243,-5,-11,-8,3,-70,-59,-19,-5
1619049621.7328527,-7,-7,-3,-26,-34,-8,-12,-5
1619049621.7386668,4,5,2,14,-5,-21,-1,0
1619049621.7406032,-2,-2,0,-30,-14,-6,0,1
1619049621.7457013,2,4,5,4,14,32,14,3
1619049621.747607,-6,-7,-15,-22,-31,20,9,-2
1619049621.7512214,-6,-9,-1,5,-21,-20,-4,0
1619049621.7529278,8,4,-8,-10,26,20,9,3
1619049621.7552843,-4,-1,5,-6,-49,24,7,-4
1619049621.7569625,-4,-12,-32,-64,15,-27,-8,-3
1619049621.7601328,-4,-1,8,24,26,25,6,-1
1619049621.761955,-7,-6,-1,-4,-38,14,-1,-3
1619049621.767209,-2,-8,-20,-57,5,-13,-9,-4
1619049621.7690115,9,14,24,69,56,26,4,2
1619049621.7720532,-8,-11,-27,-71,-43,-25,-10,-6
1619049621.7737312,5,12,37,106,20,-58,-20,1
1619049621.7803586,8,7,-4,-14,7,-5,4,5
1619049621.7823222,-17,-23,-11,-29,-53,-40,-9,-10
1619049621.7972379,20,22,26,70,49,12,10,11
1619049621.7992432,-11,-15,-10,14,81,34,6,-4
1619049621.8053129,7,10,9,16,8,-36,0,4
1619049621.8070493,3,3,9,29,-9,11,1,0
1619049621.8276422,2,2,-2,-18,11,-27,-2,2
1619049621.829481,4,-1,-15,-42,-44,16,6,3
1619049621.83215,-2,2,18,54,-12,-24,-15,-3
1619049621.8339732,3,7,7,11,13,2,-3,-3
1619049621.8369644,-12,-15,-17,-51,-39,-37,-12,-9
1619049621.8387003,2,4,-12,-26,28,86,28,2
1619049621.8410287,-28,-34,-39,-87,-97,-26,-19,-18
1619049621.8427157,9,15,19,45,34,6,4,5
1619049621.8492477,-6,-7,-5,0,-10,-11,3,-2
1619049621.8509562,1,2,-7,-27,-65,-22,-10,0
1619049621.8655272,0,3,15,62,61,4,-2,-1
1619049621.867253,-8,-7,-5,24,28,18,0,-5
1619049621.8703313,-2,-3,-28,-64,37,49,11,0
1619049621.8720224,-7,-11,-6,-1,-21,2,-6,-5
1619049621.8877506,9,6,-5,-44,-12,9,10,6
1619049621.8894558,3,-3,-19,-61,12,6,-1,0
1619049621.8925917,7,18,55,114,65,25,8,3
1619049621.8943288,-5,-8,-28,-62,13,-3,-1,-5
1619049621.9098666,-2,2,7,8,6,-3,2,2
1619049621.911618,5,4,-3,0,4,5,4,5
1619049621.915246,-16,-19,-28,-75,-66,-5,-16,-9
1619049621.9169824,-1,3,18,68,3,6,-4,-4
1619049621.9246438,1,-2,-5,-20,-3,-30,-11,-4
1619049621.9263651,3,1,-2,-5,27,-24,3,2
1619049621.9294136,-8,-11,-10,-9,-9,-14,-9,-5
1619049621.9311445,8,9,12,27,0,-14,0,4
1619049621.9462953,-2,-2,-13,-22,58,18,-6,-2
1619049621.9480257,1,5,20,36,-36,17,7,3
1619049621.9548533,-4,-7,-16,-37,32,-14,-10,-6
1619049621.9565647,1,0,9,9,-4,-17,0,2
1619049621.9611137,-7,-8,-3,-14,-18,1,3,-1
1619049621.9628434,0,-1,-3,-2,-21,-19,0,3
1619049621.9676828,4,4,-8,-16,3,24,4,2
1619049621.9693696,-7,-6,-6,-20,-51,-65,-18,-5
1619049621.9853973,-1,-6,-22,-69,-26,-31,-1,2
1619049621.9871488,-1,0,6,33,11,25,-3,-6
1619049621.9902055,-4,-2,9,21,-50,-30,-11,-3
1619049621.9919038,3,2,7,-2,23,-1,5,4
1619049622.007766,-4,-4,-11,-12,-53,-11,-2,-1
1619049622.0095987,-7,-5,5,12,-4,-8,-14,-8
1619049622.0129218,5,8,9,22,51,19,6,4
1619049622.0147848,-5,-10,-15,-45,-72,-8,-5,-4
1619049622.020945,7,14,32,89,44,11,-2,-3
1619049622.0226996,-8,-8,-10,-38,-3,19,-2,-5
1619049622.0276906,5,1,-2,5,-10,14,9,1
1619049622.0293627,-3,-1,0,6,41,14,-1,-2
1619049622.0446486,5,6,1,8,52,18,8,5
1619049622.0463843,0,0,4,11,33,10,5,-1
1619049622.0503097,1,1,5,11,2,7,8,0
1619049622.0520082,0,1,-1,-4,21,14,-3,-3
1619049622.0667505,-7,-8,-13,-41,-72,-1,-5,-5
1619049622.068464,2,4,11,21,43,7,5,3
1619049622.0830564,3,-1,-8,-16,-28,-25,-5,0
1619049622.0847538,4,5,6,31,47,11,5,1
1619049622.0898888,-8,-7,-2,-34,-62,-28,-3,-3
1619049622.0917418,6,8,3,26,73,16,5,4
1619049622.105179,1,3,7,15,-8,7,-2,-1
1619049622.1071432,-13,-14,-10,-25,-47,-24,-13,-8
1619049622.1095147,5,5,9,28,41,4,2,3
1619049622.1112418,1,-5,-17,-43,-6,7,-2,-2
1619049622.114239,-2,0,-3,3,46,21,15,2
1619049622.1160405,-5,-6,-9,-27,-25,-26,-9,-3
1619049622.1274402,7,6,-8,-29,7,11,5,1
1619049622.1291537,-3,-1,7,29,-27,-42,-13,-4
1619049622.1323133,4,6,3,-2,20,33,2,0
1619049622.1340137,-8,-10,-1,12,26,-4,0,-5
1619049622.1404526,1,-4,-19,-42,-5,18,1,-2
1619049622.1422067,-1,0,8,-4,-98,-49,-8,1
1619049622.1571739,-5,-6,-10,-33,-50,-23,1,1
1619049622.1588974,12,17,19,74,109,26,11,4
1619049622.1646972,-10,-9,-6,-6,-10,-27,-15,-7
1619049622.1664898,-6,-5,-6,-14,-30,-4,1,0
1619049622.169532,-5,-3,-2,-18,-38,-18,-7,-2
1619049622.171251,2,0,2,-1,-27,-44,-9,3
1619049622.1872034,-3,-7,-8,-8,-7,-12,4,-2
1619049622.1890602,6,9,10,22,35,51,13,4
1619049622.1922998,-3,-6,-13,-29,-33,-24,-8,-4
1619049622.1940298,7,7,1,-5,-5,31,21,7
1619049622.2007642,1,0,10,27,3,-48,-16,-2
1619049622.2027712,-3,-6,-20,-53,9,19,5,-2
1619049622.217281,-7,-8,1,15,3,-12,-13,-6
1619049622.219263,-1,-4,-9,-9,42,20,7,0
1619049622.2247505,-2,-1,5,12,-30,7,1,-2
1619049622.2266214,3,-2,-25,-53,10,-19,-4,2
1619049622.2299297,-10,-9,3,3,-40,-10,-4,-3
1619049622.2318091,-2,-2,1,14,17,46,6,-2
1619049622.2471068,3,1,-9,-16,21,17,3,0
1619049622.2491133,-5,-6,3,10,6,-21,2,-3
1619049622.2524943,2,1,-7,-23,-31,-9,0,-1
1619049622.254441,-6,-4,5,-7,-31,-20,-8,-3
1619049622.2605445,-1,-2,0,4,1,-8,-5,-3
1619049622.26245,-5,-7,-5,-13,-15,-1,-1,-2
1619049622.2694085,4,1,4,0,-7,-20,-5,1
1619049622.2712977,-3,-4,-3,-7,-26,49,13,-1
1619049622.2928524,1,0,2,10,7,14,8,-1
1619049622.29487,-5,-4,-6,0,-23,-6,-4,-2
1619049622.298217,3,2,3,7,39,9,-2,0
1619049622.3000998,2,1,4,14,-46,-42,-7,0
1619049622.3070912,3,3,-1,-6,6,13,2,1
1619049622.3089442,3,0,3,15,-11,-3,0,1
1619049622.3121424,-5,-3,4,9,0,-23,-2,-3
1619049622.3139508,3,1,6,29,42,38,7,4
1619049622.3298974,-1,1,6,29,15,-2,-1,0
1619049622.3318796,0,1,-6,-11,22,44,9,1
1619049622.3352528,2,5,12,27,39,28,5,1
1619049622.3371282,2,3,-18,-44,-28,-20,-4,-2
1619049622.352517,-3,-1,-1,11,42,35,0,-1
1619049622.3546138,-1,2,5,9,-6,-16,-4,0
1619049622.3577073,1,2,0,-1,-7,-9,-2,0
1619049622.3595138,-9,-9,-11,-8,-28,-19,-6,-4
1619049622.3747337,-7,-6,-6,-12,-36,-8,-5,-4
1619049622.3765967,0,4,21,28,-3,-6,2,1
1619049622.3829973,1,-3,-16,-29,-14,-10,-1,2
1619049622.3848479,-3,-2,8,5,-30,-43,-11,-7
1619049622.3873973,-1,-1,-1,-4,14,40,8,2
1619049622.3892689,1,0,-3,-13,0,6,-1,-2
1619049622.3924465,0,-5,-11,-39,-41,-12,-4,-2
1619049622.394328,-1,-1,2,13,19,-28,-8,1
1619049622.4128084,1,-2,5,13,13,-1,5,0
1619049622.4148455,-4,-8,-14,-35,-36,3,-7,-4
1619049622.418129,3,6,9,11,54,17,4,2
1619049622.4199657,-5,-4,-2,16,-28,20,16,0
1619049622.43521,-10,-5,-2,-2,-35,-12,-5,-5
1619049622.4371722,2,2,2,4,9,-30,-6,2
1619049622.440521,-1,-2,-7,5,17,79,22,2
1619049622.4423673,5,7,9,8,13,-5,-5,2
1619049622.4448693,8,6,-3,-4,24,-5,-2,0
1619049622.4467552,-8,-6,0,-2,-36,-21,-10,-6
1619049622.465278,0,2,1,21,22,-15,-7,-3
1619049622.467743,6,4,-12,-38,43,44,16,6
1619049622.4723868,-1,0,14,26,-10,-2,-3,1
1619049622.475302,-2,-2,-6,5,23,-22,-7,-2
1619049622.4803207,-7,-8,-7,-6,-21,-39,-11,-6
1619049622.4824388,-5,-4,-4,-21,-23,-8,-7,-3
1619049622.4874117,8,12,17,30,14,-40,-5,3
1619049622.4893088,-2,-2,10,34,65,26,5,-1
1619049622.492571,1,2,1,17,-4,4,-1,1
1619049622.494511,-5,-8,-13,-36,-34,-21,-9,-5
1619049622.5004818,5,3,-5,-10,11,-14,-2,1
1619049622.5024185,0,-2,-5,-2,14,13,5,0
1619049622.5154176,0,1,-3,-19,-15,-6,-3,0
1619049622.5180418,-5,-4,5,17,-30,15,-2,-4
1619049622.5251093,-3,-2,-2,-1,1,6,1,-2
1619049622.5269809,1,1,-6,-21,-31,-38,-3,1
1619049622.5301445,4,1,-2,-6,-6,-24,-3,1
1619049622.5320647,-10,-12,-11,-24,-32,-35,-13,-9
1619049622.5462956,2,4,7,25,16,17,0,-1
1619049622.54812,-1,-3,-12,-28,-41,-13,1,0
1619049622.5515218,1,4,15,24,17,9,1,-1
1619049622.5536673,9,9,-1,1,25,27,5,6
1619049622.5696945,-10,-8,-11,-17,16,29,8,-2
1619049622.5716426,-4,-4,-8,-23,-44,0,-4,-3
1619049622.5748715,5,4,7,34,30,-24,-4,0
1619049622.577359,-6,-5,-1,-8,-59,-33,-9,-5
1619049622.5849223,0,0,1,3,-6,-7,-1,1
1619049622.5868213,1,2,7,20,47,40,7,0
1619049622.5978644,-3,1,-4,4,16,-37,-13,-3
1619049622.5998359,-10,-15,-32,-76,-12,1,1,-3
1619049622.6072607,9,15,26,48,10,6,1,3
1619049622.6091537,-2,-2,7,7,-13,-10,3,0
1619049622.613678,-4,-3,5,4,-2,-10,-9,-5
1619049622.6157575,2,0,2,7,18,12,5,1
1619049622.6301298,-4,-7,-18,-42,-6,9,3,-2
1619049622.632173,3,4,-1,1,47,17,-3,0
1619049622.6358292,-1,-1,10,31,-34,6,4,1
1619049622.6377103,5,9,16,41,54,9,-2,4
1619049622.6445954,-1,-4,-15,-37,-14,29,5,-2
1619049622.6470659,-1,1,9,22,-15,4,-1,-3
1619049622.6605277,-2,-7,-25,-57,3,24,3,-2
1619049622.6629708,4,3,4,19,32,34,12,2
1619049622.667007,-2,2,8,23,5,0,-2,-2
1619049622.6689258,-10,-11,-13,-22,-44,-30,-10,-8
1619049622.6726434,3,4,2,4,43,38,5,0
1619049622.674677,-1,-4,-14,-52,-27,4,2,-1
1619049622.6895201,3,6,19,31,25,8,11,5
1619049622.691584,2,-3,-4,-8,-9,7,1,1
1619049622.6950526,0,2,5,8,-10,20,5,2
1619049622.6968074,0,0,15,42,33,-5,-7,0
1619049622.712762,0,-4,-18,-44,-16,-41,-10,-2
1619049622.7147586,-1,1,1,0,-1,20,-4,0
1619049622.7182493,-4,-3,4,2,-40,18,9,2
1619049622.720078,1,-1,-11,-15,12,11,6,1
1619049622.7269351,-3,-1,4,20,-1,-14,-10,-5
1619049622.728763,-5,-8,-8,-16,-26,-35,-9,-5
1619049622.7420747,2,-2,-5,-22,-26,-11,-3,1
1619049622.7439072,-7,-7,-10,-24,-24,-4,-7,-6
1619049622.7721539,-1,-2,-10,-27,7,5,1,-1
1619049622.7741983,-5,-2,-1,23,35,50,10,0
1619049622.781696,0,2,10,24,-6,-15,1,0
1619049622.7836268,0,1,2,-3,18,-6,-1,1
1619049622.7861547,-2,-3,-4,-4,-37,-5,0,0
1619049622.7879987,2,4,5,17,31,6,-3,-1
1619049622.7912176,-2,-3,-13,-38,-28,-19,5,0
1619049622.7930655,-1,2,17,33,12,8,-3,-2
1619049622.7955763,0,-3,-16,-37,-22,-28,-5,1
1619049622.7974298,5,7,10,30,14,-5,-3,1
1619049622.8007588,-4,-1,5,33,27,12,-5,-5
1619049622.8026154,-1,0,-4,-25,-21,1,3,0
1619049622.809888,-7,-13,-8,-18,0,2,-3,-5
1619049622.811688,5,9,8,16,-4,-34,-9,0
1619049622.8147895,-10,-13,-9,-2,-9,-8,-8,-6
1619049622.8165832,3,5,3,4,23,-18,-1,1
1619049622.824092,-6,-8,-9,-17,-29,-10,-3,-3
1619049622.8258796,-3,-8,-8,-18,-6,-8,2,-1
1619049622.8383694,3,8,14,37,28,28,4,2
1619049622.8401809,-9,-8,1,2,-73,-50,-18,-8
1619049622.847143,0,-1,-8,-6,-4,-6,-6,-2
1619049622.849002,1,0,-2,-16,-3,-5,-1,-1
1619049622.852176,1,-5,-14,-35,-19,-29,-9,-1
1619049622.8539946,11,11,7,11,57,43,12,4
1619049622.8694305,-1,7,28,76,23,11,3,1
1619049622.8712716,-1,-2,-6,-15,-18,-16,-5,0
1619049622.8746147,-3,-5,-12,-30,9,2,-9,-2
1619049622.876428,0,-4,-12,-24,-5,31,2,-2
1619049622.8839595,-1,0,-4,-17,-19,10,2,0
1619049622.8857894,-1,1,2,8,25,20,4,1
1619049622.8906336,-2,-1,5,14,2,-5,-1,-1
1619049622.8924537,-3,-3,-9,-4,-8,-3,-1,-2
1619049622.907091,0,-1,-1,-5,-1,3,-4,-2
1619049622.9089575,2,1,0,0,-26,11,1,-2
1619049622.912203,-3,-3,2,16,29,-12,8,2
1619049622.9139884,-3,-4,2,25,-25,-2,2,-2
1619049622.9370673,3,3,-2,0,19,1,3,2
1619049622.9390945,-3,-2,-4,-17,-8,-3,0,1
1619049622.9425652,0,-2,-8,-9,-12,43,6,-2
1619049622.9443626,-7,-5,-4,4,-9,-47,-9,-2
1619049622.9468675,-2,-1,6,7,-21,-17,-4,-1
1619049622.9488676,2,5,6,18,5,-17,-3,-1
1619049622.9585361,-1,0,-4,-21,-10,-10,-10,-4
1619049622.9603677,-6,-7,-5,2,-15,-3,-7,-4
1619049622.967478,2,4,-11,-17,47,12,2,3
1619049622.969401,-9,-11,-14,-55,-98,-45,-8,-6
1619049622.9726174,4,7,9,22,34,-11,-3,2
1619049622.9746687,2,0,4,18,13,43,5,0
1619049622.9903772,-2,-7,-4,-11,-18,-45,-9,-1
1619049622.992205,-2,-3,-13,-18,16,4,-1,-3
1619049622.9954429,-4,-3,5,5,2,6,3,-1
1619049622.9972253,0,2,3,-6,13,-3,1,0
1619049623.0039966,-1,0,0,14,14,24,6,-3
1619049623.005739,4,3,-2,2,-1,5,0,0
1619049623.0124977,-3,-6,-7,-16,-39,-39,-13,-5
1619049623.0142932,-5,-3,7,19,22,29,2,-2
1619049623.028116,2,1,-6,-16,5,24,3,0
1619049623.0299776,-3,-4,-2,5,3,-9,-3,-1
1619049623.0332623,-3,-3,-7,-18,11,5,-1,-2
1619049623.0351255,7,15,27,52,-5,-44,-8,2
1619049623.0575345,-5,-5,-6,-23,-9,13,3,-1
1619049623.0593536,-7,-8,-2,8,-2,16,2,-1
1619049623.0627024,6,9,12,46,52,26,3,1
1619049623.0644448,0,-3,-19,-51,-1,-19,-3,0
1619049623.0717127,-5,-9,-7,-14,-4,44,9,-4
1619049623.0734684,3,4,8,13,18,2,2,3
1619049623.0767045,0,1,0,-3,-36,25,9,0
1619049623.0784628,0,2,12,24,-5,-18,-2,0
1619049623.0945,6,4,-7,-4,24,48,19,7
1619049623.097207,-5,-5,-4,-18,-16,3,-1,-3
1619049623.1021204,0,-1,1,-7,-31,-34,-4,1
1619049623.1040967,-1,-4,-9,-12,-2,-7,-3,-2
1619049623.1256902,-3,-1,0,-5,-62,5,5,-3
1619049623.1277494,6,7,15,50,60,11,2,1
1619049623.1315968,-2,-2,-2,2,-4,7,3,0
1619049623.1340225,2,2,0,2,-3,-20,-5,0
1619049623.1380744,-7,-6,-4,-10,2,-31,-11,-4
1619049623.140186,-5,-2,-1,-4,-33,-13,-4,-2
1619049623.1437278,-1,-1,-5,5,-13,-25,-2,-1
1619049623.1457605,-1,5,12,33,-17,4,0,0
1619049623.1488633,0,0,0,0,6,-41,-11,-2
1619049623.1513186,-1,-2,-10,-20,34,24,5,-3
1619049623.1608522,3,1,6,16,-1,-13,-3,0
1619049623.1630304,-3,-5,-19,-41,10,31,2,-3
1619049623.1771362,-2,3,16,37,-4,-7,-3,0
1619049623.179281,-7,-6,-5,-24,-40,-47,-18,-6
1619049623.1859303,2,5,7,16,30,54,11,0
1619049623.1879842,-3,-6,-15,-13,65,13,1,-4
1619049623.1907103,-5,-3,3,14,-34,-28,-10,-5
1619049623.1927805,5,1,-9,-11,42,8,4,3
1619049623.1986465,-1,4,14,17,-2,-16,-4,-2
1619049623.2010324,7,5,5,-5,24,28,9,3
1619049623.207739,-12,-12,-7,-3,-59,-3,-3,-8
1619049623.2097516,3,4,-5,2,-8,5,6,4
1619049623.2227602,-3,-6,-14,-31,-20,-8,1,-4
1619049623.2246969,-3,-4,-6,-11,-17,6,6,-1
1619049623.2282963,3,2,-9,-19,22,-7,-3,2
1619049623.2301064,-3,-2,7,19,-2,7,2,-1
1619049623.2452633,-3,-4,-7,-13,20,4,1,1
1619049623.2471333,-3,-3,-4,-30,-58,0,3,2
1619049623.2500172,5,4,3,5,8,-13,-3,3
1619049623.2521374,-6,-10,-19,-13,34,18,4,-3
1619049623.2682164,5,8,14,27,20,28,11,3
1619049623.2701852,1,-2,-6,-11,1,-3,-2,1
1619049623.2728877,2,5,15,45,83,1,-7,-1
1619049623.2749095,-5,-4,-18,-44,-45,-10,-5,-4
1619049623.2781131,-2,-3,-5,-19,-44,15,4,-3
1619049623.2799468,-2,0,1,20,32,-14,-8,-1
1619049623.296833,2,0,-1,-5,-37,-11,5,0
1619049623.2989392,4,6,11,26,37,7,3,1
1619049623.3054006,-5,-7,-11,-15,11,-8,-8,-3
1619049623.3073416,3,5,13,23,-6,2,1,0
1619049623.3116088,-3,-5,-16,-32,38,28,-2,-3
1619049623.3133867,-2,-1,3,-1,-45,-5,-1,-1
1619049623.3170722,1,0,3,20,11,-13,-5,1
1619049623.3189485,2,0,2,-1,8,-3,-4,-2
1619049623.3268723,4,2,1,-2,-15,-20,2,2
1619049623.3286912,-3,-4,0,21,49,-11,-6,-4
1619049623.331882,-2,-2,-7,-17,19,4,-6,-1
1619049623.3339758,-3,-3,2,23,-17,-35,-13,-6
1619049623.35766,-5,-3,-4,-23,-27,4,-1,0
1619049623.359685,2,1,4,8,12,8,2,0
1619049623.3629265,-4,-3,-9,-6,0,-8,-2,-2
1619049623.364734,2,4,3,9,26,11,3,0
1619049623.379662,0,-3,-2,3,-6,-2,-1,-1
1619049623.3816226,5,3,5,2,-3,2,-3,-1
1619049623.3851223,-4,-2,-5,-16,-24,-4,-4,-2
1619049623.3869877,-2,-2,1,8,-1,2,2,0
1619049623.4016528,-2,-4,-6,-11,-10,1,0,-1
1619049623.4035516,9,15,29,60,21,8,1,3
1619049623.4114695,0,-3,0,11,41,33,9,2
1619049623.4133415,-4,-6,-6,-16,-36,-17,-5,-3
1619049623.41629,1,2,1,2,-4,0,0,0
1619049623.4181876,-2,-2,-1,-8,-2,-13,-1,-1
1619049623.4234216,-2,-2,-5,-15,-5,-9,-3,-1
1619049623.4252188,0,1,5,11,2,1,0,-1
1619049623.4277308,1,2,1,0,2,0,-1,-1
1619049623.4295683,-4,-4,-6,-14,-27,-2,2,-1
1619049623.4331594,0,-1,0,5,-9,-8,-2,-1
1619049623.4351313,-4,-1,-10,-19,-3,3,-1,0
1619049623.4461653,-2,-2,5,8,-4,2,-3,-2
1619049623.4480274,-4,-2,-1,-8,-9,3,1,0
1619049623.4935408,-4,-5,-3,-6,-18,-10,-5,-2
1619049623.4955144,1,1,1,0,4,7,2,3
1619049623.498195,0,1,1,2,1,1,-1,-1
1619049623.5002792,-2,-2,-6,-13,-12,-6,1,-1
1619049623.5738683,-2,-3,-4,-5,-11,-10,-7,-3
1619049623.5758727,-2,-2,1,-2,-18,-13,-1,-1
1619049623.581767,1,1,3,6,5,-4,0,2
1619049623.5838313,1,-3,-5,-17,-12,-12,-5,0
1619049623.6070428,2,0,-2,-1,9,-2,1,1
1619049623.609012,-7,-5,-5,-2,7,-5,-2,-2
1619049623.6117175,-3,-4,0,-4,-19,-15,-4,-2
1619049623.613686,-2,-2,0,3,9,1,0,0
1619049623.6360726,1,1,-2,1,0,6,1,-1
1619049623.638098,-1,-2,-3,-4,-1,-5,-1,-1
1619049623.641422,-2,1,2,6,21,4,-2,-3
1619049623.6436124,-3,-2,-1,0,-31,-12,-3,-2
1619049623.6587684,-1,-3,0,4,21,17,3,-1
1619049623.6607516,-1,-3,-2,-4,4,-5,-1,1
1619049623.6641977,-3,-2,-6,-1,25,8,6,0
1619049623.6661575,-4,-1,2,-2,-29,-6,-4,-3
1619049623.6954074,2,0,-1,-2,-8,-11,-4,1
1619049623.6973948,-4,-1,-1,-2,3,0,0,-3
1619049623.7002077,-2,-1,-2,3,-4,-5,1,-1
1619049623.702257,2,-3,-1,-1,2,0,0,-1
1619049623.7116942,1,-2,0,-2,-11,-1,-1,-1
1619049623.7135508,0,3,2,1,1,3,0,0
1619049623.7171352,4,1,3,3,2,1,-3,-1
1619049623.7189932,-2,-5,0,0,-1,-2,-2,0
1619049623.7214627,-3,-4,-6,-8,-6,1,1,-1
1619049623.7233095,-1,0,-1,0,4,3,0,-2
1619049623.7407541,-2,-1,-3,-4,-3,-1,-2,1
1619049623.7426612,-2,-4,-1,3,10,-1,2,-1
1619049623.7458477,-1,0,1,1,-1,1,-2,-2
1619049623.7476912,-3,-1,0,1,1,-2,-1,-1
1619049623.750995,0,0,1,-1,5,1,-5,-2
1619049623.7528486,0,2,-2,-1,-1,-1,1,-1
1619049623.7704747,-3,-1,0,1,-3,-3,0,-2
1619049623.7723365,-1,-2,-2,-2,-4,0,1,0
1619049623.775559,0,-2,-2,-3,3,-1,1,-1
1619049623.7775197,0,-2,0,0,-5,-3,-2,-1
1619049623.7800531,0,-1,2,-1,-1,-3,-2,0
1619049623.7818701,-1,-1,-1,-3,-5,-3,-1,-2
1619049623.8234303,-1,3,0,2,1,1,-1,-1
1619049623.8253217,-3,-3,-2,-2,-2,-1,2,2
1619049623.8278768,4,2,-3,-2,-1,0,0,-2
1619049623.8297744,2,2,-3,1,2,1,-3,-1
1619049623.83302,-3,-2,-2,1,-2,-2,1,-3
1619049623.8350034,-2,-2,-2,-3,-4,-2,2,-2
1619049623.8375027,0,-1,1,0,-2,-1,0,-1
1619049623.8393073,-3,-3,0,0,-3,-3,-1,-1
1619049623.842434,-2,-2,1,-1,2,-1,1,-1
1619049623.8442414,1,-1,0,-2,0,1,-1,0
1619049623.8467534,-1,1,1,-1,-1,-1,-2,-2
1619049623.8486097,0,0,2,1,0,-1,-2,-1
1619049623.8538115,-1,1,-1,-3,-1,-3,-2,-1
1619049623.8556535,-1,0,-3,-4,-3,-1,-3,0
1619049623.8581853,-4,-3,-2,-1,-1,-3,-3,-1
1619049623.8600492,-2,-2,-5,-2,0,-1,1,-2
1619049623.8632486,0,-1,-3,1,-3,-1,0,-1
1619049623.8650532,-3,-3,-4,-1,-3,-2,-1,-1
1619049623.8676534,-4,0,-1,-2,-1,-1,-1,0
1619049623.8694215,0,1,-1,-2,-1,0,-1,-1
1619049623.8821185,-1,-3,1,2,0,0,-1,0
1619049623.8840294,-2,-1,-1,0,2,-1,-1,-2
1619049623.8893068,-1,0,-1,-1,0,1,-1,-2
1619049623.891237,-1,-1,2,-1,0,0,0,1
1619049623.8944244,-2,-4,-3,-1,-1,-1,0,-3
1619049623.8962855,0,-1,0,0,-2,1,2,0
1619049623.913016,-1,-1,-2,-1,0,-2,-4,-2
1619049623.9148772,-4,-5,-4,-2,-2,-3,-1,-3
1619049623.918185,-2,-1,-1,0,2,-1,-1,1
1619049623.9200323,1,0,-2,-2,0,-1,-3,0
1619049623.925333,0,0,-3,-1,-4,-3,0,-1
1619049623.9271798,-1,-1,0,-3,-3,-1,-1,0
1619049623.9344518,0,1,2,-1,-1,2,-1,0
1619049623.9362974,-1,0,-1,0,-2,-1,0,-3
1619049623.9496975,-1,-2,-1,0,-2,1,2,1
1619049623.951711,-2,1,1,-2,-3,-3,-2,-3
1619049623.954937,-1,0,-2,-1,0,-1,-1,0
1619049623.956756,-4,-1,-2,0,-1,-4,-1,-1
1619049623.9722772,0,-4,0,0,1,-2,1,0
1619049623.9742396,0,0,-3,-3,-3,0,-1,0
1619049623.9774277,0,-1,1,-2,0,0,-1,-1
1619049623.979308,0,-1,0,0,-2,0,-1,-3
1619049623.9854147,3,-1,-1,-1,-1,-1,-2,-1
1619049623.9872808,2,1,-2,1,-1,-2,-2,0
1619049623.9953525,-4,-2,0,-3,-3,-3,0,-2
1619049623.9971566,0,1,1,-2,-2,-2,-1,-1
1619049624.0248175,-2,-1,-1,-2,-3,-1,-2,-1
1619049624.0268688,-4,-5,-2,-1,-1,-1,0,0
1619049624.030057,-1,-1,-1,-3,-2,0,0,-2
1619049624.0318954,2,2,-2,3,0,2,0,0
1619049624.0480213,-2,-1,-2,-1,-1,0,-1,0
1619049624.0501037,-2,-2,-1,2,1,-1,0,0
1619049624.0536213,3,2,-1,0,1,-1,-2,0
1619049624.055576,1,-1,-2,0,0,2,-4,-1
1619049624.0580661,-2,-2,-1,0,1,-2,0,-3
1619049624.0599282,-1,1,-2,0,1,2,-1,0
1619049624.0631156,0,-1,1,1,-1,-1,-2,-1
1619049624.064924,-4,-2,-2,0,-1,-3,-4,-1
1619049624.069219,-4,-3,0,-2,-3,0,-1,0
1619049624.0711293,-2,0,0,0,0,0,1,0
1619049624.0744524,-1,-2,-2,1,-2,-3,-2,0
1619049624.0762892,-1,-2,-1,-2,0,-1,0,-1
1619049624.099561,1,-2,-1,0,0,1,1,-1
1619049624.1016462,4,0,-2,-4,-3,1,0,0
1619049624.1051967,-2,-2,-1,1,-3,-2,-1,1
1619049624.1071613,0,-2,-1,0,1,-2,0,-1
1619049624.1097524,0,0,-1,-1,3,1,0,-1
1619049624.1115541,-4,-3,0,0,0,0,-2,-2
1619049624.115026,-2,-3,1,-2,-2,-1,1,-1
1619049624.1169963,-1,0,0,0,-1,-1,-2,-2
1619049624.1303587,-1,0,-4,-3,-3,0,-1,0
1619049624.1323228,-2,-3,-2,-2,-3,-2,1,-3
1619049624.136154,0,1,2,1,-1,1,-2,-2
1619049624.1380353,-1,-1,-2,-2,0,0,-1,-1
1619049624.15194,-2,-2,-1,-2,-2,-2,-1,-1
1619049624.1537838,-2,-2,0,-1,0,-1,-2,0
1619049624.159809,-1,-2,-4,-1,1,0,-2,0
1619049624.1616654,-4,-5,-3,-2,-4,-3,1,1
1619049624.165409,-3,-1,0,-1,0,-2,0,0
1619049624.1678357,0,-1,1,1,0,-2,-2,-2
1619049624.174965,0,-1,-3,0,-2,-1,-3,-4
1619049624.176808,0,-1,-1,0,0,1,2,2
1619049624.1898024,0,0,0,0,0,-1,0,-2
1619049624.1916988,0,0,-1,-1,-1,0,-2,-1
1619049624.1949422,-2,-1,-3,-1,-1,-2,0,1
1619049624.196874,0,0,1,0,-1,0,-1,-2
1619049624.2122014,0,0,-1,0,0,0,-1,0
1619049624.2141361,-2,-2,0,0,-1,-5,0,-2
1619049624.2177775,-1,-3,0,-1,-4,-3,0,-3
1619049624.2196603,0,1,0,-1,-2,0,-3,-1
1619049624.2253556,-1,-3,-2,-1,-2,-3,0,0
1619049624.2272077,-2,-2,-1,0,-1,-1,-1,0
1619049624.2350175,1,0,-1,-2,-1,-2,2,0
1619049624.2368608,-1,0,-1,-2,-1,0,-4,-1
1619049624.2503247,0,-2,0,0,-1,0,0,-1
1619049624.252331,2,2,-2,-2,-2,2,1,0
1619049624.2556703,-1,-1,-1,-2,0,1,-1,-1
1619049624.2574978,-2,-4,-4,-1,-1,-3,1,0
1619049624.2720203,-3,-5,-2,-2,-3,-1,-1,2
1619049624.273807,-2,-1,-3,-1,-1,-1,0,-1
1619049624.276968,-4,-2,-1,-2,0,-3,-2,-2
1619049624.2788815,-1,-1,1,-1,-2,-1,0,-2
1619049624.2946734,0,2,1,2,-1,0,-1,-1
1619049624.2966287,0,-2,-1,-2,-1,1,-4,1
1619049624.3001633,-2,-3,-1,-1,-2,-1,-2,0
1619049624.3020546,-1,-1,1,2,2,0,0,-1
1619049624.3087125,0,0,-2,-1,-3,-4,-1,-3
1619049624.310588,-5,-2,0,0,-3,-2,1,-1
1619049624.3233962,-3,-3,-2,-1,-3,-2,0,-2
1619049624.3252072,-1,-1,-2,-6,-3,1,2,0
1619049624.332674,-2,-4,-2,2,2,-1,-3,0
1619049624.334788,-3,0,0,0,1,-5,0,0
1619049624.338023,2,2,-2,-2,0,2,-1,1
1619049624.3398728,0,0,-2,0,0,1,-2,-2
1619049624.3621857,-1,0,-3,-2,-3,0,1,-2
1619049624.3641565,0,-1,-1,0,-2,1,-1,-1
1619049624.36771,0,0,0,1,0,-3,-2,0
1619049624.3696468,-2,-3,0,-1,-1,-3,-3,0
1619049624.378192,-2,-2,-2,-2,-2,-2,0,-1
1619049624.3802037,-1,-1,2,0,0,-1,-1,-1
1619049624.3833692,-3,-2,-2,-1,-2,0,1,0
1619049624.3852336,1,-1,-2,1,1,-3,0,0
1619049624.4086637,0,2,1,-1,-1,1,-1,0
1619049624.410636,-1,-1,-2,-1,0,0,-2,-2
1619049624.413744,-2,-2,0,0,-2,-3,0,-1
1619049624.4155724,0,1,-2,-1,-2,0,-1,-2
1619049624.4181967,0,1,-3,-2,-1,1,-1,0
1619049624.4200053,-2,-3,-2,-1,-2,1,-1,-2
1619049624.4232092,-2,-1,0,-1,-1,-2,-1,-2
1619049624.4250753,-2,-3,-2,-2,-1,-2,-1,-1
1619049624.4298851,-2,-4,-1,-1,0,-1,-1,-3
1619049624.4317217,-2,-3,1,-1,-2,-1,0,0
1619049624.4451241,1,0,-2,0,0,-2,-2,-1
1619049624.4469674,-2,1,0,-1,0,0,-1,-1
1619049624.4521399,-2,-3,1,0,-3,-3,-1,-1
1619049624.4539819,0,0,0,-3,2,-1,-2,-2
1619049624.4596815,1,1,-2,-3,-2,2,-1,1
1619049624.4614902,-3,-1,-1,1,-1,0,0,-3
1619049624.4739778,1,0,-1,-1,-1,0,0,-1
1619049624.4759724,2,-1,-2,2,1,-1,0,-3
1619049624.5135968,-1,-3,-1,-1,-2,-2,-2,-3
1619049624.5155914,-2,-3,-3,1,-1,-3,-1,-1
1619049624.518337,0,1,-1,-1,-1,1,-2,1
1619049624.5203612,-2,0,-2,0,-2,0,-3,0
1619049624.5235555,-1,-3,0,-2,-2,-1,-1,0
1619049624.525432,0,-1,1,1,1,2,-2,-1
1619049624.527975,0,2,-2,0,1,-1,-1,-1
1619049624.5297227,-2,-2,-1,1,-2,-1,2,0
1619049624.5328836,-2,-3,-1,0,1,0,0,-1
1619049624.5347393,0,-3,-3,-3,-1,1,1,1
1619049624.543226,-3,-4,-1,-1,-2,-4,1,-1
1619049624.5450754,0,0,-1,-1,-1,-4,-3,0
1619049624.548286,-2,1,-1,3,2,-1,-4,-2
1619049624.550226,0,1,0,-1,1,-5,-2,-1
1619049624.552813,-2,-2,0,-2,-2,-2,0,-3
1619049624.5546944,1,0,0,-1,1,1,-3,-1
1619049624.5579786,1,-1,0,-1,0,1,-1,0
1619049624.5599525,-4,-3,-1,-3,-6,-3,-1,-1
1619049624.5719712,-1,0,0,-2,0,-1,0,0
1619049624.5737479,-2,-1,-1,0,-2,-1,1,-1
1619049624.5778577,-3,-4,-1,-2,-3,-4,1,0
1619049624.5797381,-2,0,0,-2,-3,-2,-1,-1
1619049624.6027596,2,-1,-1,0,0,0,-3,0
1619049624.604744,0,-1,-2,-1,-2,1,-1,-2
1619049624.608222,-1,-1,0,-2,-2,-2,-1,-1
1619049624.6109374,2,1,-2,0,2,2,-1,-1
1619049624.6244981,-1,1,-1,1,1,-1,-2,1
1619049624.6267545,-2,-2,0,-2,-1,-3,-1,0
1619049624.630857,-3,-1,-2,-3,-3,-2,1,0
1619049624.6327102,0,-1,1,0,2,0,-2,-1
1619049624.635431,-3,-3,-2,-1,-2,-4,-1,0
1619049624.6372974,-2,-3,-1,-2,0,-2,-1,-1
1619049624.640541,-1,-1,-1,0,0,0,0,-1
1619049624.642581,-1,1,-1,0,0,0,-2,0
1619049624.6545122,-1,-1,0,-1,-3,0,0,-1
1619049624.656478,1,-1,-3,-3,-2,-1,0,2
1619049624.6606443,-1,0,-1,1,1,0,-3,-2
1619049624.6628907,-2,-5,-1,-1,1,-1,0,-1
1619049624.668684,0,-1,-1,-3,-1,-1,0,-1
1619049624.670695,-1,1,-1,-1,0,-3,-1,-2
1619049624.6829777,-4,-2,0,0,1,-1,1,-1
1619049624.6850183,-3,-2,1,0,-3,-1,2,0
1619049624.6922514,0,1,-2,-1,0,0,0,0
1619049624.6943018,-1,-1,-2,-3,-2,-3,-2,0
1619049624.6975615,0,-2,-2,1,1,-2,-1,-2
1619049624.6993542,-1,1,-1,-1,-1,0,-1,-2
1619049624.7148516,0,0,-2,-1,0,1,-2,1
1619049624.716843,-2,-3,0,0,-1,-2,0,-1
1619049624.720289,0,-1,1,-1,-1,-1,1,0
1619049624.7222085,1,0,-2,-2,-1,-1,-3,0
1619049624.7295194,-4,-2,0,-1,-4,-3,0,-2
1619049624.731415,-1,-2,-3,0,-1,0,0,-2
1619049624.737003,0,0,0,-1,-2,-1,0,0
1619049624.7388864,0,-2,0,0,0,-1,-1,-1
1619049624.7526248,-1,-4,0,-2,2,-2,0,-3
1619049624.7546809,1,0,-2,-3,-1,0,-1,1
1619049624.7656972,1,1,-1,-3,-1,2,-1,-1
1619049624.7677324,-3,-2,2,1,0,0,-1,0
1619049624.781139,1,-2,-1,2,0,0,-3,-1
1619049624.7832067,-1,-1,0,1,0,1,0,0
1619049624.7980719,-3,-3,-3,-3,-2,-3,0,0
1619049624.8000457,-4,-3,-3,-2,-2,-3,0,-1
1619049624.802884,-2,-1,-2,-4,-5,-1,0,-3
1619049624.8048525,-1,-2,0,1,-2,-2,0,-2
1619049624.8080745,0,-2,0,-1,-2,-2,0,-1
1619049624.8098578,2,2,0,1,-2,-2,-3,-1
1619049624.812328,-1,1,-1,-1,3,1,-3,2
1619049624.814053,-2,-3,-2,-1,-1,-2,-1,0
1619049624.817105,1,3,-2,-2,0,1,-2,0
1619049624.8190181,0,1,-1,-2,-2,0,-2,0
1619049624.8511097,-2,-3,-3,1,-2,0,-1,-2
1619049624.8536382,-2,-2,-1,-1,-2,-2,-1,-1
1619049624.857045,0,0,-1,2,1,0,-1,1
1619049624.8590536,-1,-3,-2,0,0,0,-1,-1
1619049624.861527,1,-1,3,4,3,1,0,-2
1619049624.863421,1,1,-1,-1,-1,0,-2,-1
1619049624.8669214,-2,0,0,-3,-2,-1,-1,-1
1619049624.868911,-1,-1,-1,-3,-3,-1,2,0
1619049624.8796055,2,0,0,-2,0,0,-2,-2
1619049624.88152,-1,-2,-3,0,0,-1,-2,-2
1619049624.885379,-4,-3,-3,1,-1,-2,-2,-2
1619049624.8873026,-2,-3,-2,-1,-1,-2,0,-1
1619049624.8952467,-3,-1,-2,-1,-1,0,-2,0
1619049624.8971775,-2,-1,0,-2,-2,-2,-2,-1
1619049624.900703,0,-2,-2,-3,0,-2,-3,-3
1619049624.9026244,1,2,-2,-4,-1,-2,-1,-3
1619049624.909115,1,1,2,0,1,-2,-4,-1
1619049624.9109786,-1,0,-1,1,1,-1,0,-1
1619049624.934284,0,0,-1,-1,0,3,3,1
1619049624.9368465,0,1,-2,1,1,0,-3,-1
1619049624.9395933,-1,-3,-2,-1,-2,-2,1,-1
1619049624.9415581,-2,-3,1,-2,-1,-1,1,1
1619049624.9637291,-1,-1,-1,-2,-1,-1,-3,-2
1619049624.9657586,-2,-3,-1,2,1,0,-3,-1
1619049624.9690576,-2,-1,-1,0,-3,-2,-1,0
1619049624.971069,2,1,-2,1,0,1,0,-3
1619049624.9744427,1,1,-2,-1,-2,0,-1,-2
1619049624.9763,-2,-3,2,2,2,1,1,-2
1619049624.978778,-2,0,-1,-2,1,-2,-2,1
1619049624.9806106,0,0,-2,-4,-2,0,-1,0
1619049624.9842222,-1,-4,1,-2,-2,-2,-1,0
1619049624.9861524,-3,-3,-1,-2,-2,-1,1,-1
1619049624.9991298,1,1,-2,-3,-2,0,0,0
1619049625.001329,-4,-1,0,1,0,-2,-4,-1
1619049625.0172434,-2,-3,0,-2,0,-3,0,-1
1619049625.0193243,1,1,0,-1,-1,-2,-3,0
1619049625.021797,-1,0,-1,-1,-1,0,0,0
1619049625.0236151,-3,-1,-1,-3,-5,-3,1,-2
1619049625.0269156,1,-1,-2,0,0,2,-2,0
1619049625.0287642,-1,0,-1,-1,0,0,-1,0
1619049625.0313075,-3,-3,-4,-1,0,-2,0,0
1619049625.0331461,-2,-4,0,0,-2,0,-1,-1
1619049625.042749,0,0,0,1,-1,-2,-3,-2
1619049625.0445657,-1,-3,-1,-2,-4,-3,0,0
1619049625.0526621,0,-1,-1,-1,-2,-4,-3,-1
1619049625.054572,0,0,-3,-2,1,2,-1,2
1619049625.0577319,-2,0,-2,-1,-3,-1,-2,-1
1619049625.0595958,-2,-1,-1,-2,-2,0,3,1
1619049625.074757,-1,1,-1,0,2,1,0,-2
1619049625.0766582,2,-2,0,1,1,2,-2,-2
1619049625.079745,-1,-2,0,0,-1,-3,0,-1
1619049625.0815134,0,-1,0,-4,-2,-3,-3,-1
1619049625.087957,-2,-1,-2,-1,0,3,-3,-1
1619049625.089851,-3,-3,0,-3,-6,-5,-1,0
1619049625.0972447,-4,1,-1,3,5,-3,-2,0
1619049625.099121,0,1,-3,-1,7,4,0,-2
1619049625.1127112,-3,-1,0,0,-6,2,0,-2
1619049625.1146634,0,-2,0,-3,4,-5,-3,0
1619049625.1184814,-1,-1,-1,-3,-18,-3,-2,0
1619049625.120376,2,2,1,1,4,-4,-2,1
1619049625.136103,-2,-3,0,3,10,5,2,-3
1619049625.1381035,-2,-1,-2,-2,-8,-7,0,0
1619049625.1413066,0,-1,-2,-4,-5,-10,-1,0
1619049625.143207,0,0,-1,-1,0,12,5,-1
1619049625.1489637,-5,-8,-3,-6,-6,-8,-3,-5
1619049625.1514137,0,1,-1,2,3,1,-2,-2
1619049625.1575577,-1,-2,-2,-5,-3,2,-1,0
1619049625.1594172,0,0,-3,-5,-10,-6,-4,-2
1619049625.1721506,1,1,-4,-9,-2,0,2,2
1619049625.1740272,2,4,8,17,-1,-7,-3,2
1619049625.1772118,-3,-2,-2,5,21,14,4,-2
1619049625.1791108,-2,-3,-1,-3,-12,-2,-2,-3
1619049625.1960177,2,2,0,-1,11,8,2,0
1619049625.197987,-4,-4,-4,-11,-15,-7,-2,-2
1619049625.2087896,-1,-2,2,-1,-8,-1,5,1
1619049625.2107348,-4,-4,0,1,2,1,-3,-1
1619049625.2132323,-2,-2,0,4,2,-4,0,1
1619049625.215086,0,1,-3,-5,11,2,2,-1
1619049625.2188685,1,2,-2,-1,-6,1,-1,1
1619049625.2207437,1,-2,-5,-9,-7,-2,-1,-1
1619049625.2322216,-2,-3,4,13,4,-6,-1,0
1619049625.234475,2,2,6,12,1,4,-1,0
1619049625.2398105,1,-3,-4,-11,5,1,1,0
1619049625.2415931,-4,-2,0,6,3,-8,-2,-3
1619049625.2555585,-1,-1,-5,-14,-17,-1,0,-1
1619049625.257415,1,0,-5,-2,1,-3,-3,-1
1619049625.2606697,2,1,-2,8,44,12,6,1
1619049625.2625465,-5,-4,-1,-7,-41,-20,-5,-2
1619049625.2858343,5,3,2,5,16,7,2,0
1619049625.288273,-3,-6,-8,-26,-21,3,-1,-3
1619049625.2922783,0,3,6,27,31,14,3,2
1619049625.2941318,-6,-6,2,-6,-24,-14,-6,-3
1619049625.296612,3,5,0,2,-30,-18,-3,0
1619049625.2985003,-8,-9,-1,4,36,20,-1,-2
1619049625.3022985,-1,-2,-2,-15,-15,3,0,-1
1619049625.3041863,5,4,2,9,-15,-8,-1,1
1619049625.3310568,-6,-6,-3,4,42,13,-5,-2
1619049625.3331964,-1,-1,-3,-5,-12,-20,0,-1
1619049625.3368237,4,4,1,-2,-24,8,0,0
1619049625.3386774,1,-1,-3,-1,26,10,1,1
1619049625.3411984,0,-3,-8,-32,-51,-12,-5,0
1619049625.3430781,4,3,1,15,36,0,2,-1
1619049625.3462908,1,6,13,15,6,-2,-3,0
1619049625.3481643,1,1,1,8,-5,-4,2,3
1619049625.3524272,-4,-1,1,8,31,1,4,1
1619049625.354346,0,-5,-4,-3,-5,9,2,-1
1619049625.357388,-6,-7,-7,-16,-44,-31,-11,-6
1619049625.3592188,2,2,2,2,5,6,0,-2
1619049625.3737276,-1,-1,-9,-18,3,-14,-4,-3
1619049625.375638,-4,1,2,2,-4,-1,-2,0
1619049625.3823793,1,1,3,20,50,13,6,4
1619049625.384588,-14,-17,-13,-14,-20,-22,-20,-13
1619049625.3971224,0,-4,-4,-16,-24,-17,-1,0
1619049625.3990335,2,3,2,-9,-34,-21,-2,-1
1619049625.4041977,9,8,3,18,41,7,3,3
1619049625.4060848,-6,-6,-5,-1,41,27,3,-2
1619049625.4125044,-7,-12,-4,-8,-46,-10,-4,-2
1619049625.4144464,2,0,-3,-13,-25,-10,-1,1
1619049625.4183638,-1,0,-3,9,40,4,1,-1
1619049625.420279,8,10,2,3,-14,-9,1,4
1619049625.4348512,3,8,14,24,30,11,-1,0
1619049625.4367385,-8,-10,-14,-15,9,10,4,-1
1619049625.4399343,-6,-6,-2,-10,-26,-18,-13,-6
1619049625.4417381,-2,-6,-16,-33,-14,-16,0,1
1619049625.4570398,3,4,14,32,-12,18,8,2
1619049625.4589624,2,4,3,16,39,5,-1,2
1619049625.462147,-7,-7,-9,-41,-34,-11,-5,-4
1619049625.4640315,5,5,-3,-12,3,1,3,3
1619049625.4719474,-1,-3,-1,15,24,-39,-7,-4
1619049625.4737363,-4,-4,0,-6,-56,-6,-10,-3
1619049625.476899,-5,-7,-6,-17,-18,-12,-1,-2
1619049625.478749,2,3,-4,-4,-8,10,3,1
1619049625.4953053,-2,-3,-9,-14,2,38,5,-1
1619049625.497053,0,0,-3,-10,3,3,3,-1
1619049625.5000975,-3,-1,7,59,29,-5,-3,-3
1619049625.5019157,-3,3,15,-1,-21,5,3,2
1619049625.518238,-3,-4,-12,-28,-21,-22,-6,-4
1619049625.5199435,-2,-4,-14,-33,-22,-1,-2,-2
1619049625.523049,-3,-8,-14,-48,-62,-2,1,-3
1619049625.5247483,6,11,25,83,59,11,2,4
1619049625.5476773,-3,-4,4,33,34,-17,-3,-2
1619049625.5494988,-3,-5,-17,-43,-52,-6,0,0
1619049625.600481,7,6,-1,-25,-17,-20,-5,4
1619049625.602524,1,-1,-4,-4,25,14,5,-1
1619049625.6052675,-8,-13,-17,-44,-30,-9,-3,-8
1619049625.607136,9,14,34,80,28,3,1,3
1619049625.616861,-6,-6,-6,-3,-18,0,0,-3
1619049625.6188893,-4,-8,-17,-44,-7,-20,1,-1
1619049625.6214116,9,16,25,32,-21,7,-4,5
1619049625.6232104,3,2,-8,-11,-1,34,10,2
1619049625.6297088,-11,-11,3,37,41,-15,-10,-7
1619049625.6314917,5,6,5,-2,5,6,5,2
1619049625.6338618,3,0,0,2,7,12,2,1
1619049625.6357045,7,8,7,-3,50,29,13,8
1619049625.638699,-15,-16,-17,-28,-92,-28,-9,-9
1619049625.6403928,7,10,16,23,31,4,3,2
1619049625.6508656,2,3,5,1,-24,75,18,3
1619049625.6527221,-7,-9,3,19,-7,-12,-4,-3
1619049625.6595495,0,4,4,8,16,-23,-12,-3
1619049625.661251,-4,-3,-13,-26,-36,3,-3,-4
1619049625.6643863,-5,-6,-6,-11,26,-7,-2,0
1619049625.666097,0,-2,-8,-19,-5,7,2,0
1619049625.6833544,4,4,0,5,26,12,2,1
1619049625.685478,-3,3,20,43,37,25,5,0
1619049625.6894317,7,3,-3,-31,-10,-19,-4,3
1619049625.6916676,1,2,-6,11,32,41,10,1
1619049625.69844,-4,-3,-9,-28,-3,-19,-5,-3
1619049625.700321,3,4,7,20,0,-16,0,1
1619049625.7123322,-1,1,0,-8,-45,1,-3,-3
1619049625.714382,-6,-5,1,14,12,12,7,-3
1619049625.7168455,6,5,5,12,25,45,12,5
1619049625.7186852,-6,-9,-18,-48,-3,-11,-6,-3
1619049625.7221477,-2,-3,0,21,29,33,0,-2
1619049625.7240164,-4,-6,1,-14,-19,-52,-17,-8
1619049625.7422354,2,2,2,11,-3,4,4,2
1619049625.7441263,-7,-7,-4,-11,5,-8,-7,-6
1619049625.747349,8,9,0,1,11,26,15,8
1619049625.749773,-3,-2,0,6,6,2,-6,-2
1619049625.756605,-5,-7,0,4,7,11,9,0
1619049625.7586758,-4,-7,-12,-29,-4,-9,-14,-6
1619049625.7643325,15,19,2,5,61,26,17,11
1619049625.7660818,-7,-4,8,19,-36,-32,-12,-4
1619049625.7712605,3,7,17,29,49,1,-2,0
1619049625.7731452,-7,-8,-6,-1,-2,2,-4,-5
1619049625.7782938,1,1,-7,-11,21,-12,-4,2
1619049625.7801728,0,2,1,-4,-40,-8,-8,-5
1619049625.7955234,5,3,-9,-34,-32,-21,1,2
1619049625.7974648,2,3,17,68,21,8,-4,1
1619049625.800915,-8,-6,2,14,25,-12,-10,-8
1619049625.8029785,4,4,-5,-12,26,12,5,3
1619049625.8170843,0,0,-2,-10,-38,-7,3,-1
1619049625.8195593,-6,-7,-4,-8,-19,-1,0,-3
1619049625.8228273,2,1,-2,19,35,13,1,-1
1619049625.824669,-10,-12,-7,-12,-7,-30,-12,-6
1619049625.8315482,6,6,10,26,34,14,6,5
1619049625.833412,-1,-7,-19,-35,0,-9,-3,-1
1619049625.8390064,5,10,28,46,14,27,4,1
1619049625.840822,2,3,8,13,-46,-16,-2,1
1619049625.8539348,-2,-3,-4,9,32,18,2,0
1619049625.8558345,-5,-6,-11,-54,-87,-47,-8,-3
1619049625.8585417,-6,-3,16,43,-22,-14,-8,-4
1619049625.860378,11,8,-5,-16,40,36,16,8
1619049625.8767672,-4,-4,-2,2,-17,-15,-2,-2
1619049625.8787866,2,3,9,13,10,-2,-7,-2
1619049625.8813937,-10,-13,-21,-55,-44,-37,-10,-6
1619049625.8832648,1,1,-7,-27,-29,-13,-3,-2
1619049625.908416,-7,-5,1,8,-8,2,-10,-5
1619049625.910381,1,0,-10,-7,57,19,14,5
1619049625.913654,0,-3,-5,-25,-42,-27,-2,-1
1619049625.91554,3,8,13,18,11,0,-4,3
1619049625.9193811,-1,-1,-10,-22,-5,2,4,0
1619049625.9212816,-10,-9,-8,-7,-51,-3,-1,-3
1619049625.9237301,1,-2,2,10,2,-8,-7,-1
1619049625.9255223,-3,-5,-11,-10,12,19,8,0
1619049625.9370797,0,-3,-15,-55,-35,1,2,0
1619049625.9390256,3,10,43,102,-10,-18,-7,-2
1619049625.9415152,0,-5,-20,-38,-21,1,-1,-1
1619049625.943402,-12,-17,-15,-34,-53,-24,-11,-9
1619049625.9607656,9,11,13,29,29,-7,-4,3
1619049625.9627247,-9,-12,-27,-63,-20,-21,-9,-5
1619049625.9652498,-4,-5,-4,-22,-60,-26,-6,-4
1619049625.9670997,3,3,-7,-21,2,-23,-1,2
1619049625.9755077,-5,4,43,118,40,50,3,-5
1619049625.9773493,-2,-4,-9,-29,-2,3,2,-1
1619049625.9798772,0,0,1,1,-14,-24,2,-1
1619049625.981765,-2,-3,-11,-28,-18,5,-1,1
1619049625.9965727,-4,-5,-10,-14,13,-19,-10,-3
1619049625.998532,4,4,4,8,9,20,7,3
1619049626.0014906,-6,-5,-3,0,-21,-2,-4,-3
1619049626.003445,2,3,5,12,31,24,8,3
1619049626.010465,1,1,-1,-6,-10,-19,-2,0
1619049626.0122826,5,3,5,8,6,7,5,3
1619049626.0196033,-4,-5,9,32,21,-2,-4,-3
1619049626.0214484,0,-4,-14,-30,-2,6,3,-1
1619049626.0340285,-3,-3,5,14,22,1,-3,-2
1619049626.0361016,2,7,10,41,21,-6,1,2
1619049626.0386755,1,5,2,10,42,15,3,0
1619049626.0404773,-6,-10,-2,-5,-36,-18,-4,-4
1619049626.0565784,11,13,6,11,2,0,1,5
1619049626.0585504,-21,-25,-27,-43,-47,-11,-17,-17
1619049626.061407,-1,-1,1,-2,-3,-16,-4,1
1619049626.0632713,-2,1,9,25,-1,17,8,0
1619049626.079659,2,1,-8,-16,50,26,11,4
1619049626.081561,2,2,1,-1,-33,-12,1,0
1619049626.0840979,2,-1,-3,-6,30,12,8,2
1619049626.0862985,-5,-6,-5,-12,-18,-8,-12,-6
1619049626.093914,-3,-3,-4,-9,5,3,-6,-3
1619049626.095747,3,3,0,-9,3,4,3,3
1619049626.101984,5,8,10,22,29,20,5,0
1619049626.1039324,1,-1,-1,8,29,12,2,2
1619049626.1185887,-7,-7,-2,-4,-79,-28,-7,-4
1619049626.120569,-13,-15,-19,-34,3,-17,-8,-7
1619049626.1236439,11,9,18,49,20,9,-1,5
1619049626.1254563,-5,-6,-15,-29,3,-9,-5,-4
1619049626.1307802,-4,-1,1,11,24,10,4,-2
1619049626.1326451,-4,-8,-17,-35,-89,-24,-7,-3
1619049626.139007,-4,-2,-12,-57,-11,0,2,0
1619049626.14085,-6,-9,-4,6,12,-8,-6,-6
1619049626.1558065,0,-4,-2,-7,-50,-27,-7,-2
1619049626.1576571,7,12,14,45,79,35,9,4
1619049626.1602018,-8,-13,-14,-9,-16,-1,-2,-6
1619049626.162032,3,2,7,6,12,37,10,2
1619049626.184389,-2,-5,-10,-28,1,-5,-4,-1
1619049626.1868155,3,5,8,8,13,-17,-4,3
1619049626.1893322,-9,-7,-4,-5,-36,-23,-6,-1
1619049626.1912172,2,5,2,-5,-6,16,1,3
1619049626.2000487,-6,-9,-17,-17,-2,-7,-5,-7
1619049626.20234,13,21,41,71,76,16,7,8
1619049626.204858,-2,-4,-11,-20,-25,6,3,-1
1619049626.2067127,4,1,-1,1,26,5,2,1
1619049626.2154098,-5,-2,1,0,-48,-27,-5,-3
1619049626.2172832,2,4,11,41,76,29,3,0
1619049626.2203536,-5,-6,-6,-25,-20,0,-2,-3
1619049626.2222822,0,3,8,20,-3,-12,-4,-1
1619049626.2371063,3,-2,-12,-19,18,10,5,1
1619049626.23905,1,-2,-11,-28,7,30,4,-2
1619049626.2414918,2,7,13,32,-11,-21,-10,1
1619049626.2433336,-5,-7,-7,-7,18,4,-2,-5
1619049626.250602,4,4,3,15,11,13,3,0
1619049626.2526293,-3,-1,-10,-25,-4,-5,-4,-4
1619049626.2665157,0,0,-5,-10,6,26,7,0
1619049626.2688117,0,0,-5,-24,-24,-17,2,2
1619049626.2744048,3,5,7,27,-1,-12,-6,1
1619049626.276271,0,-1,4,17,3,8,8,1
1619049626.2891898,-3,-10,-17,-44,10,12,0,-3
1619049626.2911592,12,19,45,114,29,-10,-1,6
1619049626.2975843,-2,-2,-11,-33,-20,-5,-5,-3
1619049626.2994366,-8,-6,-3,5,-10,-8,-3,-6
1619049626.3025799,1,6,1,-8,12,-21,-7,-2
1619049626.3044753,2,-1,-8,-7,-20,20,5,0
1619049626.3106282,-10,-7,-4,-28,-8,0,0,-3
1619049626.3124776,1,-5,-21,-63,-39,-13,-1,2
1619049626.3193946,5,8,13,41,32,-1,-1,-1
1619049626.3213496,-2,-6,1,19,5,-8,-2,-3
1619049626.3494413,1,0,4,-3,-9,17,6,0
1619049626.3513243,-5,-9,-16,-38,-86,-25,0,-2
1619049626.3538897,-1,-3,-3,-8,16,2,1,-1
1619049626.3557332,-4,-5,-19,-52,-27,1,2,1
1619049626.358957,2,5,14,37,38,-8,-2,-1
1619049626.3607852,0,0,-1,-6,-10,21,-2,0
1619049626.3640325,3,0,-10,-27,-5,-1,0,2
1619049626.3657866,-3,0,3,13,-15,-11,-3,-3
1619049626.379674,-4,-7,-7,-20,-12,2,0,-1
1619049626.3815157,-5,-7,-2,-4,-15,-5,-5,-2
1619049626.3840501,-2,-2,7,22,4,-16,-1,-1
1619049626.3859494,-1,-2,-18,-42,21,9,-2,-3
1619049626.3946192,3,7,13,27,17,-3,1,1
1619049626.3965018,2,8,20,60,63,-2,-6,-2
1619049626.3991542,-4,-9,-15,-18,-23,-2,-2,-2
1619049626.4009478,-2,-1,4,8,21,-4,-4,-1
1619049626.4167345,-2,-4,-3,-5,0,-2,-2,-3
1619049626.4192002,-1,-1,-4,-11,-29,-11,-2,-5
1619049626.4315715,-4,-4,-15,-49,-13,5,-1,-2
1619049626.433462,1,5,15,54,14,16,1,-1
1619049626.4397607,-4,-6,-16,-32,-13,3,0,0
1619049626.4416444,2,0,-3,-13,8,5,2,1
1619049626.4550183,-3,-4,-6,0,23,-1,-2,-1
1619049626.4569006,-2,-2,2,-9,-13,6,1,-2
1619049626.460097,-1,-1,-3,2,-14,-4,-4,-1
1619049626.461919,5,7,15,45,42,20,1,2
1619049626.4643817,-7,-8,0,4,-44,-21,-3,-4
1619049626.4662542,2,1,-4,-21,29,-4,-1,0
1619049626.47605,6,7,12,30,8,2,3,3
1619049626.477949,-3,-4,-4,-22,-26,-58,-12,-4
1619049626.4804697,-1,-4,10,39,8,16,3,-3
1619049626.482384,-2,-3,-7,-22,-16,-2,-4,-2
1619049626.499802,1,2,3,4,-23,-16,-5,-1
1619049626.5023851,-8,-10,-14,-27,15,29,5,-1
1619049626.5049624,3,7,7,4,-7,-13,-4,0
1619049626.506828,4,4,-1,1,15,-10,-6,2
1619049626.5140173,-12,-15,-14,-60,-37,-13,-2,-4
1619049626.515915,4,1,0,23,-1,5,6,2
1619049626.5189779,4,10,12,27,13,6,0,0
1619049626.5209312,-3,-7,-12,-14,31,19,7,-1
1619049626.5372505,-7,-9,-9,-18,4,-32,-11,-8
1619049626.539193,0,-2,-5,-6,-22,10,5,0
1619049626.5438242,-3,-2,4,7,8,12,-3,-2
1619049626.545662,2,5,8,15,-7,1,2,3
1619049626.5598977,-1,0,-1,8,-38,-3,-4,-3
1619049626.5617952,3,2,-4,-14,28,21,6,2
1619049626.5643399,-5,-7,-10,-25,-8,-27,-9,-4
1619049626.5661917,-2,-1,11,26,-6,5,1,-2
1619049626.5829232,-1,-1,-2,2,8,-9,-3,-2
1619049626.585161,-4,-1,1,6,1,2,0,0
1619049626.5891166,1,-1,-17,-66,-14,-4,4,2
1619049626.5910068,2,4,17,60,4,14,4,2
1619049626.5984132,-3,-6,-1,5,20,-13,-8,-3
1619049626.600196,-1,0,0,5,-2,-21,-7,-3
1619049626.6032617,2,2,-7,-16,-7,7,1,0
1619049626.605142,-7,-8,-8,-30,-75,-54,-16,-7
1619049626.6203566,5,3,-4,-18,4,25,10,5
1619049626.6222131,1,2,5,6,-47,-35,-13,-2
1619049626.6247468,-1,0,9,37,32,12,1,2
1619049626.6266513,-5,-5,-12,-30,-23,-17,-4,-1
1619049626.642112,5,9,9,31,58,47,14,4
1619049626.6439617,-5,-6,-11,-35,-15,-30,-3,-2
1619049626.6464589,-2,0,15,52,23,-3,-1,-1
1619049626.648246,1,-1,-2,-9,-4,-8,1,-1
1619049626.6561987,-4,-1,-6,-13,-12,18,2,-1
1619049626.6580856,2,5,6,16,42,28,6,3
1619049626.6606324,3,1,-8,-23,-36,-16,-4,0
1619049626.6625261,-6,-4,-8,-18,-28,8,-4,-3
1619049626.6800914,1,-3,-3,-6,-8,-7,-4,0
1619049626.68192,-1,1,3,3,18,-1,3,1
1619049626.6844635,-5,-8,-2,1,-7,-2,0,-3
1619049626.6862607,2,1,0,-8,-1,1,-3,-1
1619049626.6935976,-4,-3,-5,-6,3,2,1,1
1619049626.6954827,-5,-8,-14,-42,-11,-9,-9,-6
1619049626.6979818,5,7,18,45,26,-25,-5,0
1619049626.6998057,-3,0,-1,6,24,17,2,-1
1619049626.71697,0,-5,2,22,17,-3,1,-1
1619049626.7189596,5,7,6,21,-1,4,1,2
1619049626.7214687,0,-3,-6,-3,29,18,3,-1
1619049626.7233088,-3,-4,-4,-8,1,-25,-12,-6
1619049626.7403042,1,3,6,7,-1,7,-2,-1
1619049626.7423906,0,1,0,-6,-17,1,3,1
1619049626.744993,0,1,1,6,29,6,-2,1
1619049626.7468655,-7,-7,-3,-10,-42,-26,-3,-2
1619049626.7535665,3,3,2,-2,10,-6,-1,0
1619049626.7554405,-3,-9,-4,2,14,6,-4,-2
1619049626.75798,-1,3,1,5,-9,14,4,2
1619049626.7598853,3,1,-7,-27,9,13,6,2
1619049626.7761946,2,5,3,8,16,-3,-4,0
1619049626.778144,-7,-6,4,12,-25,-2,-6,-6
1619049626.7807436,3,3,8,11,-21,-34,-3,1
1619049626.782669,-2,-5,-9,-23,-3,-2,0,0
1619049626.8014913,0,2,1,-4,13,9,0,1
1619049626.8039,-1,-1,-3,1,14,32,8,0
1619049626.8065538,-2,-5,-5,-5,-6,-4,-7,-4
1619049626.8084035,1,1,-6,-6,3,-14,-6,1
1619049626.8136623,-4,-3,3,2,-31,-13,-2,-1
1619049626.8156528,5,4,2,-9,21,13,2,2
1619049626.8182776,-5,-2,-5,-2,-24,-1,-2,-3
1619049626.820344,1,3,16,43,12,11,6,2
1619049626.8365543,3,3,-4,-11,-2,-25,-5,1
1619049626.8385832,-4,-4,-5,-12,-49,5,-5,-3
1619049626.8443186,-5,-4,0,6,-5,12,1,-3
1619049626.846549,0,2,2,12,46,29,10,2
1619049626.8595014,-2,0,8,11,-27,-29,-10,-4
1619049626.8622603,0,-2,-8,-17,-17,-12,-4,1
1619049626.8665786,2,3,4,3,3,-7,3,3
1619049626.8689494,-4,-6,-14,-21,-15,4,-3,-4
1619049626.8745918,7,11,16,51,32,53,12,4
1619049626.8767595,-1,0,5,9,9,-3,2,0
1619049626.8813996,-2,-3,-4,-6,-8,6,0,-3
1619049626.8835287,5,4,11,29,11,-6,0,2
1619049626.8969433,-5,-9,-16,-40,-22,1,1,-2
1619049626.899059,2,2,5,10,9,4,3,2
1619049626.9048526,-9,-9,-8,-16,-7,-12,-7,-6
1619049626.9068775,-3,-3,1,11,-10,-2,-3,-3
1619049626.9194539,-6,-9,-10,-24,-27,-28,-8,-6
1619049626.9214075,-2,1,-5,-5,7,10,-3,-2
1619049626.9243414,1,0,0,-12,-35,-1,0,3
1619049626.9268045,1,0,-3,-13,5,-12,-3,-1
1619049626.9345312,-1,0,4,17,-13,-32,-7,0
1619049626.936676,-2,-6,-21,-68,-48,-25,-3,-2
1619049626.9411776,-3,-1,1,4,-10,-10,-4,0
1619049626.9430063,-4,-8,-10,-18,21,17,2,-2
1619049626.9554157,5,3,4,22,12,2,1,3
1619049626.9568696,2,7,24,54,12,-6,-2,0
1619049626.959051,0,0,-1,-5,17,17,4,0
1619049626.9605248,5,5,2,0,-9,-15,-3,0
1619049626.98022,-8,-8,-12,-34,-16,-11,-7,-4
1619049626.9823694,6,3,9,36,45,-4,6,2
1619049626.9865067,1,1,-1,0,23,24,-1,0
1619049626.988643,-2,-1,-1,-5,-31,-3,-5,-2
1619049627.0022156,-2,-4,1,2,6,6,4,1
1619049627.0043664,-3,-7,-21,-38,-18,-19,-2,0
1619049627.0072567,9,14,29,62,31,-1,1,3
1619049627.0090911,2,4,-4,-14,36,6,7,3
1619049627.0166702,-4,-2,2,-2,-25,-17,-3,-2
1619049627.0187404,-2,1,9,30,12,12,2,-1
1619049627.0216603,3,0,-12,-37,-7,0,3,0
1619049627.0236456,-1,2,0,5,14,-1,-2,-1
1619049627.0395956,-3,-5,-5,-1,-22,12,-1,-2
1619049627.041537,1,5,10,20,4,-6,-3,0
1619049627.0444891,-5,-7,2,2,2,-9,-6,-4
1619049627.047034,1,2,5,13,13,6,1,1
1619049627.0529282,-4,-4,-8,-13,4,9,2,-4
1619049627.0549536,-1,-2,-5,-3,5,13,1,0
1619049627.0692184,2,-1,-14,-26,21,23,11,1
1619049627.0714326,-6,-4,7,14,-43,-22,-8,-5
1619049627.0777323,4,6,3,12,27,-1,-2,1
1619049627.0798833,-4,-4,-10,-28,26,22,6,1
1619049627.0841556,-3,-3,-7,2,21,5,-1,-2
1619049627.0862062,-1,0,1,-4,-11,2,-6,-2
1619049627.1082122,-2,0,0,7,0,2,3,-1
1619049627.111083,-1,-2,-1,-2,-38,-39,-9,1
1619049627.115138,-7,-8,-17,-12,52,59,11,-1
1619049627.117788,-2,-7,-12,-35,-5,0,1,1
1619049627.1217964,1,-1,2,-7,-17,-5,-2,-4
1619049627.1238246,3,0,-5,-4,0,0,-5,-2
1619049627.1294615,-4,0,-1,-14,-32,-20,-8,-2
1619049627.1321466,-3,-3,-3,-5,-11,7,1,-3
1619049627.138104,1,-2,-16,-32,7,8,3,1
1619049627.1401985,-8,-5,-1,1,-24,2,-2,-5
1619049627.1430728,1,0,3,4,-13,-33,-4,-1
1619049627.145197,1,-1,8,17,21,41,6,1
1619049627.1596122,0,-2,-5,-5,-14,-14,-6,-1
1619049627.161946,-5,-6,-1,5,-9,-3,-5,-6
1619049627.1657574,1,2,3,-1,-34,-11,-1,0
1619049627.1679626,2,5,10,40,64,6,2,-3
1619049627.1732085,4,5,2,-3,21,17,6,3
1619049627.1752234,-2,-4,-9,-20,22,2,-4,-1
1619049627.1891637,0,0,7,10,-18,-5,-4,-3
1619049627.1913052,6,7,9,10,-20,-12,-1,2
1619049627.1965265,0,-2,2,13,55,29,7,2
1619049627.1991045,-6,-4,-1,2,-16,-20,-7,-4
1619049627.201883,2,0,-20,-43,-30,14,6,2
1619049627.2040305,-10,-9,-2,12,-10,-21,-6,-3
1619049627.2202456,0,2,3,5,-5,-16,-1,1
1619049627.222519,1,0,3,15,35,6,2,1
1619049627.2254121,-4,-9,-20,-61,-90,-27,-7,-4
1619049627.227625,2,1,-4,6,18,12,5,1
1619049627.2333002,-3,-1,5,15,-3,-9,-5,-3
1619049627.2353063,3,0,-5,-9,20,24,8,0
1619049627.2412152,-2,-1,9,24,15,-1,1,0
1619049627.243223,-6,-2,-5,-19,-62,-26,-3,-3
1619049627.256416,-9,-9,-12,-22,0,-14,-9,-6
1619049627.2586036,4,8,18,29,11,5,-1,1
1619049627.2647226,2,3,11,30,36,21,3,0
1619049627.2668784,-3,-6,-10,-32,-23,-9,-6,-1
1619049627.280294,-6,-7,-18,-34,-15,14,-3,-6
1619049627.2828186,1,1,7,11,-3,0,3,2
1619049627.285557,1,3,2,14,-12,-25,-2,1
1619049627.2877133,-4,-4,-7,0,8,-1,-9,-7
1619049627.2936172,4,5,13,12,0,8,7,2
1619049627.2966964,-4,-4,-8,-14,-7,-4,-4,-3
1619049627.3012562,2,2,8,19,6,-7,0,3
1619049627.3041992,2,1,-7,-19,17,-5,-3,1
1619049627.3164675,-5,-4,12,33,-6,-14,-6,-5
1619049627.3183262,-2,0,-6,-15,-13,1,-1,0
1619049627.3207414,0,-2,-2,5,20,2,-2,1
1619049627.3225086,1,-2,-2,-5,-18,-16,-2,-1
1619049627.3400314,1,0,-8,-28,-7,16,6,-1
1619049627.3420048,1,4,10,55,48,45,8,3
1619049627.344888,-2,-1,0,-6,-10,-6,-3,-2
1619049627.347257,1,2,2,13,16,-3,2,-1
1619049627.3628983,0,-2,-4,-18,-55,-3,1,0
1619049627.3655138,-1,-2,-6,-9,20,-3,-2,-2
1619049627.3690732,-6,-3,0,6,3,7,3,-1
1619049627.371322,2,1,0,-3,-1,8,0,3
1619049627.376176,2,2,-1,4,11,-1,0,2
1619049627.378751,0,0,-5,-14,-17,-12,-2,-3
1619049627.3820183,5,6,1,2,0,-3,-2,2
1619049627.384015,-4,-5,0,8,19,9,4,0
1619049627.4005835,-2,-3,1,-11,-11,-6,-2,1
1619049627.4026182,-2,-4,1,14,-28,-21,-4,-1
1619049627.4055212,-1,-2,-5,-2,-4,-14,-8,-2
1619049627.407462,-2,0,4,-1,-24,-7,-1,-1
1619049627.4287422,1,2,0,11,17,4,1,1
1619049627.4313085,-1,-2,-4,-17,-22,-9,-2,-1
1619049627.4460127,-2,-1,-1,-2,6,-5,-3,-1
1619049627.4486146,-3,-2,-1,3,-5,7,2,-2
1619049627.452251,2,0,2,8,14,-5,-1,0
1619049627.4543073,2,1,-3,-13,-8,-6,-4,-2
1619049627.457111,-3,-4,-1,3,-1,-2,-1,-2
1619049627.4591773,-1,2,0,-1,0,2,0,-1
1619049627.4766378,-1,3,4,12,8,0,0,0
1619049627.479234,-1,-5,-2,-6,-1,-2,4,0
1619049627.4828212,-5,-5,1,-1,-2,3,1,-2
1619049627.4848027,1,1,-1,-2,-3,-3,-3,-1
1619049627.5433397,0,1,1,7,5,-2,-5,-2
1619049627.5454547,0,-1,-2,-4,-1,-2,-1,1
1619049627.5744143,-1,2,2,1,4,2,-2,-3
1619049627.576534,-1,-1,-4,-5,-7,-1,-2,-1
1619049627.5796044,0,-4,-1,2,1,-1,0,1
1619049627.5816064,-3,1,3,-1,11,7,2,0
1619049627.5878978,-2,-5,-3,-5,-19,-4,-3,-1
1619049627.5898802,1,1,10,12,0,-6,-5,-1
1619049627.5958867,-1,-3,-1,2,-3,-1,0,-1
1619049627.5981586,-2,-5,-9,-23,-14,-4,-3,-2
1619049627.6031468,-1,0,1,3,3,0,1,0
1619049627.6052566,-1,-2,3,3,-1,-4,0,1
1619049627.608154,-3,-2,-2,-2,-3,-7,-1,-1
1619049627.610385,-1,-1,1,-1,-6,-5,-2,-3
1619049627.6140301,2,2,1,1,4,1,1,-1
1619049627.6164787,1,3,1,-2,-4,1,-2,-1
1619049627.6260986,-5,-7,-1,-1,-13,-4,0,0
1619049627.6287038,0,0,0,-2,-3,0,0,1
1619049627.6318352,-1,-3,-1,-3,6,2,1,-1
1619049627.6343753,-3,-4,-4,-1,-2,3,2,-3
1619049627.6380677,-2,-4,-1,2,-4,-7,-5,-3
1619049627.6400175,2,1,-1,-2,3,1,-1,0
1619049627.6427398,-4,-4,-1,5,8,2,-1,0
1619049627.6445746,-3,-2,-4,-8,-12,-3,-1,0
1619049627.6560757,1,2,2,2,-1,3,1,0
1619049627.6579237,0,0,-3,-2,1,-2,0,0
1619049627.6606116,1,-2,-2,-2,4,-1,-1,-3
1619049627.6626766,-1,-4,-3,-3,-1,1,2,1
1619049627.6658328,1,2,0,0,-3,-3,-1,0
1619049627.6677456,-3,-4,-3,0,-1,-3,-1,-1
1619049627.6857648,-2,-3,-4,-3,-2,0,0,1
1619049627.6876462,0,-2,-2,-4,-5,0,1,0
1619049627.6911564,-2,0,-1,3,11,2,-1,0
1619049627.693019,-1,-3,-1,-2,-4,-2,-4,-1
1619049627.6956155,0,-1,0,0,0,0,-2,0
1619049627.6974697,-2,2,0,-1,2,-2,-4,-2
1619049627.7083712,-4,-3,-1,-1,-2,0,-1,1
1619049627.7104461,0,1,2,0,-6,-1,2,0
1619049627.7134352,0,0,-3,0,2,0,-2,1
1619049627.7150414,-2,-2,0,2,1,0,-1,-2
1619049627.7385538,-1,-4,-2,-3,-3,-2,1,-2
1619049627.7404022,-1,-1,-4,-3,0,2,2,-2
1619049627.743026,0,-1,-1,-4,-6,-2,-2,-1
1619049627.7448545,0,0,1,-1,-1,-1,-1,-1
1619049627.7480485,0,-1,0,0,0,2,-1,-2
1619049627.7498913,0,-1,-1,-1,1,-1,-3,-1
1619049627.7523851,-1,1,0,0,0,0,0,-2
1619049627.7541947,-1,0,0,2,3,-1,-3,0
1619049627.7585423,1,3,2,0,0,0,-1,-4
1619049627.7604613,0,-3,-1,-1,0,0,-1,0
1619049627.763019,-5,-3,2,1,-1,-4,-2,-2
1619049627.764883,2,0,-1,0,0,-2,-2,-1
1619049627.7895076,-1,-4,0,0,-5,-4,-3,-2
1619049627.7914073,-3,-1,2,3,4,-1,0,-4
1619049627.7939024,-1,-2,-3,-3,-12,-1,-2,-1
1619049627.7956932,-1,0,0,0,4,0,-1,-1
1619049627.7991176,-1,-1,0,0,-2,-3,-1,0
1619049627.8009908,0,1,-2,-2,1,1,-2,-1
1619049627.8207173,2,-1,0,-2,4,1,0,-1
1619049627.8227694,-1,-2,-3,0,-8,1,0,-1
1619049627.8260632,0,-2,-1,1,4,-1,0,2
1619049627.8278913,0,-1,1,0,-2,1,-3,-1
1619049627.830499,-3,-2,0,1,-1,0,-1,-1
1619049627.832347,-2,-1,-2,-3,-3,-3,1,-1
1619049627.8418005,2,3,-1,-2,2,4,0,2
1619049627.8436582,-1,1,-3,-1,-2,-3,-2,-1
1619049627.8488736,0,-1,0,-1,-2,-2,0,0
1619049627.8507743,-1,-1,-1,-2,1,2,-2,0
1619049627.8559854,-3,-2,-2,-1,0,0,-3,-1
1619049627.857769,-2,-2,-1,-1,-2,-5,-1,-1
1619049627.860298,-2,-2,-2,-4,-5,2,4,-1
1619049627.8620756,-1,-1,2,1,0,0,-1,-1
1619049627.8789668,-2,-2,-1,-1,-3,-4,-1,0
1619049627.8808265,-1,-2,-2,0,0,-1,-1,0
1619049627.8833802,1,2,-3,0,3,-1,-2,0
1619049627.8852205,1,-4,-2,1,1,-1,-1,-1
1619049627.9021304,0,-2,-1,-2,-4,-1,-1,-1
1619049627.9042568,0,-1,-1,-1,0,2,1,-1
1619049627.9069269,0,0,1,2,1,-1,-1,1
1619049627.9087384,-3,-2,0,-2,-1,-2,2,-2
1619049627.9339004,-2,-3,0,-2,-5,0,-1,1
1619049627.9359016,-1,1,0,3,5,-2,-2,-1
1619049627.9386792,-5,-2,-1,-1,0,-3,-2,-1
1619049627.9405582,-1,-2,-1,-2,-2,-1,0,1
1619049627.9436958,1,0,-2,0,2,3,-2,-3
1619049627.9454799,0,-1,-3,-1,-4,-1,0,0
1619049627.9479644,-1,-2,-3,0,0,-2,-1,-2
1619049627.949804,0,0,-1,-2,0,0,-2,-1
1619049627.9632668,-2,0,-1,0,1,-2,-1,0
1619049627.9651458,-2,-2,1,-3,-4,-1,0,-1
1619049627.9676886,0,-2,-3,-3,0,0,-1,-1
1619049627.969523,-2,1,-1,-1,0,0,-3,-1
1619049627.9850142,-3,-3,-2,-1,-4,-1,1,0
1619049627.987169,-1,-1,-1,0,-1,-3,0,-1
1619049627.9898047,1,1,0,0,-1,-2,-1,-2
1619049627.9916985,-2,-1,-2,-1,-2,-2,1,-1
1619049628.0061064,-2,-3,-1,-1,-3,-2,-2,-2
1619049628.0079856,2,-1,0,-1,-2,2,0,-1
1619049628.0136359,-2,-1,1,1,1,3,-2,-1
1619049628.0154088,-2,0,-1,0,-2,-2,0,0
1619049628.0225387,-1,1,0,-1,0,-1,0,-1
1619049628.0243728,-1,-2,-1,-2,-4,-2,-3,-2
1619049628.0268016,-2,-2,-2,-5,-2,-7,-6,-2
1619049628.0285025,-1,-1,1,-3,-1,-5,-2,-1
1619049628.0354502,-1,-1,0,0,-1,-2,-1,-1
1619049628.0374262,0,1,-2,-1,-1,0,-2,0
1619049628.043624,0,-2,-1,-3,0,1,2,0
1619049628.045398,0,-1,-1,-1,-3,0,-1,0
1619049628.0668852,2,3,0,0,-3,0,-2,-2
1619049628.0686326,-4,-3,-2,-1,-2,-2,-1,1
1619049628.0711608,-3,-3,-1,0,5,1,-1,-1
1619049628.0728624,-1,1,-1,2,2,2,-1,-1
1619049628.0842288,-3,-4,-1,-1,-4,-3,-1,-1
1619049628.0859907,-1,-2,-1,1,2,-3,1,-1
1619049628.0884826,-1,-1,-2,-1,-8,-2,-1,-1
1619049628.090192,0,-1,-2,-2,0,0,-2,-2
1619049628.1047895,-2,-2,-1,-3,-1,-3,1,0
1619049628.1065524,0,3,-2,-1,0,1,-2,0
1619049628.109624,1,2,0,-2,1,-4,-1,-1
1619049628.1113262,-1,-3,-1,0,-2,-3,-1,-2
1619049628.1204789,-2,-1,0,-2,0,0,-3,-1
1619049628.122228,-1,-3,-1,-1,0,1,-2,-2
1619049628.1253178,-1,-2,-1,1,-3,-1,1,0
1619049628.1270375,-1,-2,1,0,-1,0,1,1
1619049628.15818,2,2,1,0,0,0,-2,-1
1619049628.1599019,0,-2,-1,-3,-5,-2,0,-1
1619049628.1629379,-4,-1,-2,0,1,0,-1,-2
1619049628.1646163,0,0,-2,-1,2,-1,0,-1
1619049628.1669776,0,0,-2,0,0,2,0,-1
1619049628.1686697,-2,-3,-1,-1,0,0,-1,0
1619049628.1718893,-1,-1,1,-1,0,2,0,-1
1619049628.1735756,-1,-2,0,0,-2,-1,-2,-1
1619049628.1794968,-4,-3,-3,-3,0,-2,0,0
1619049628.1811883,-3,-1,1,-1,-4,-6,1,1
1619049628.1842508,1,-1,-1,2,0,-2,-4,1
1619049628.185965,-1,0,-2,-1,1,-4,-3,-1
1619049628.209551,-1,0,-2,-2,-1,1,-2,0
1619049628.2112906,-1,2,0,1,3,4,1,-2
1619049628.2143116,0,1,1,-2,1,1,-1,0
1619049628.2160225,-2,-4,-2,-3,-6,-2,1,1
1619049628.2239208,2,1,0,0,3,1,-1,-2
1619049628.2256193,-1,1,-1,1,0,-2,-5,0
1619049628.2414205,-3,-3,0,-3,-2,-3,2,0
1619049628.243208,-2,-4,-2,0,-2,-1,0,-3
1619049628.2455704,-1,-2,0,-1,-4,-2,-2,-1
1619049628.247283,0,-2,0,0,0,-3,-4,-2
1619049628.2704637,-1,-1,-2,-1,-2,0,0,-1
1619049628.272486,0,2,0,0,0,0,0,0
1619049628.2751744,-2,-2,-2,-1,1,0,-1,0
1619049628.2768698,-3,-3,-1,-1,0,-3,0,-2
1619049628.2799144,1,0,-1,-1,-2,-1,-1,-2
1619049628.2815943,0,-1,0,-3,-1,-2,-2,-1
1619049628.2922325,-2,-2,-1,0,-3,-4,2,-1
1619049628.2939308,-1,-3,-1,-2,0,-2,1,-1
1619049628.296923,-2,0,-1,-1,0,0,-1,-2
1619049628.2986326,-3,-2,-3,-1,-2,0,-1,-1
1619049628.3009787,-1,-1,-3,0,-1,-3,0,-1
1619049628.302696,2,2,-2,-1,-1,0,-1,-1
1619049628.305804,1,0,-2,-1,-2,-2,-4,-2
1619049628.3075142,-2,-1,-1,0,2,1,0,0
1619049628.3218834,0,1,-2,-1,0,-1,0,0
1619049628.3236206,2,1,-2,-2,-2,1,0,-1
1619049628.3266573,-3,-3,-1,0,-3,-2,-1,-2
1619049628.3283508,-2,-5,-1,-1,-2,-2,0,-1
1619049628.3442647,2,0,-1,-2,-1,0,-1,0
1619049628.34599,-3,-2,0,-2,-2,-2,-1,0
1619049628.3489945,-1,-2,-1,1,0,-1,0,1
1619049628.3507133,-2,2,-1,0,0,1,-1,0
1619049628.359297,-1,0,0,-1,-1,-1,-4,-3
1619049628.3610322,1,-3,-2,-1,-5,-6,0,-1
1619049628.3744473,-2,0,-2,-2,3,4,1,-1
1619049628.3761432,2,0,-1,-1,-4,-2,-3,-1
1619049628.382458,-3,-3,-1,-2,-1,-3,0,0
1619049628.384217,-4,-2,-1,-1,0,0,1,-1
1619049628.3879993,-2,-2,-2,-1,-3,0,-3,-1
1619049628.389702,-2,-1,0,-2,-1,-2,0,-1
1619049628.4046369,-1,-2,-1,0,-2,0,-1,-1
1619049628.4064744,0,1,-3,-2,-4,-1,-1,2
